SpectraSuite Datei
++++++++++++++++++++++++++++++++++++
Datum: Tue Dec 13 15:51:26 CET 2016
Benutzer: Admin
Dark-Spektrum vorhanden: Ja
Referenz-Spektrum vorhanden: Nein
Zahl der probierten Teilspektren: 1
Spektrometer: USB4F05832
Integrationszeit (usec): 80000 (USB4F05832)
Spektren Durchschnitt berechnet: 50 (USB4F05832)
Boxcar Glättung: 0 (USB4F05832)
Dunkelstromkorrektur: Nein (USB4F05832)
Puls/Lampe aktiviert: Nein (USB4F05832)
Correct for Detector Non-linearity: Nein (USB4F05832)
Streulichtkorrektur: Nein (USB4F05832)
Anzahl Pixel in verarbeitetem Spektrum: 3648
>>>>>Begin Processed Spectral Data<<<<<
177,54	10,94
177,75	10,94
177,97	10,94
178,19	30,19
178,41	25,44
178,63	25,80
178,85	16,06
179,07	21,50
179,29	29,33
179,51	14,13
179,73	14,25
179,95	27,12
180,17	12,74
180,39	24,90
180,61	31,33
180,83	27,36
181,05	11,92
181,27	37,97
181,49	26,50
181,71	12,74
181,92	31,13
182,14	26,05
182,36	15,73
182,58	27,81
182,80	27,69
183,02	14,09
183,24	31,42
183,46	19,54
183,68	24,99
183,90	22,49
184,12	22,61
184,34	31,70
184,56	15,48
184,78	23,59
185,00	30,31
185,21	19,82
185,43	29,78
185,65	33,26
185,87	28,59
186,09	24,49
186,31	17,04
186,53	16,67
186,75	34,61
186,97	30,88
187,19	37,56
187,41	22,81
187,63	26,58
187,84	36,54
188,06	33,26
188,28	28,06
188,50	23,59
188,72	17,04
188,94	30,02
189,16	30,72
189,38	21,95
189,60	30,72
189,82	35,76
190,03	29,90
190,25	31,78
190,47	16,83
190,69	19,50
190,91	21,71
191,13	26,09
191,35	5,16
191,57	18,27
191,79	43,91
192,01	18,35
192,22	36,45
192,44	17,16
192,66	24,62
192,88	10,49
193,10	17,20
193,32	33,38
193,54	33,42
193,76	35,92
193,98	16,38
194,19	22,90
194,41	26,50
194,63	35,63
194,85	35,92
195,07	18,23
195,29	20,97
195,51	22,94
195,73	18,27
195,94	26,99
196,16	22,49
196,38	39,89
196,60	18,96
196,82	33,30
197,04	21,34
197,26	30,47
197,48	29,90
197,69	18,72
197,91	26,21
198,13	22,94
198,35	24,37
198,57	38,87
198,79	29,49
199,01	20,07
199,22	20,15
199,44	25,80
199,66	20,60
199,88	34,12
200,10	16,79
200,32	34,86
200,54	27,12
200,75	26,34
200,97	24,04
201,19	23,26
201,41	38,91
201,63	28,63
201,85	14,58
202,06	26,91
202,28	22,45
202,50	21,71
202,72	10,65
202,94	29,86
203,16	14,46
203,38	24,53
203,59	22,12
203,81	37,35
204,03	10,04
204,25	30,92
204,47	18,15
204,69	15,61
204,90	21,22
205,12	20,27
205,34	15,44
205,56	27,98
205,78	34,04
206,00	33,10
206,21	27,32
206,43	26,01
206,65	37,64
206,87	16,02
207,09	6,14
207,30	19,82
207,52	34,65
207,74	41,08
207,96	24,13
208,18	14,95
208,40	23,39
208,61	21,30
208,83	36,09
209,05	32,03
209,27	26,21
209,49	23,18
209,70	21,95
209,92	12,49
210,14	41,57
210,36	-0,04
210,58	27,93
210,79	27,85
211,01	42,80
211,23	26,38
211,45	30,88
211,67	23,72
211,88	32,81
212,10	25,31
212,32	28,79
212,54	28,02
212,76	19,91
212,97	15,69
213,19	18,68
213,41	29,86
213,63	24,13
213,85	28,75
214,06	20,56
214,28	32,97
214,50	22,12
214,72	19,74
214,94	25,19
215,15	28,02
215,37	21,50
215,59	11,63
215,81	23,35
216,02	20,19
216,24	21,75
216,46	25,52
216,68	12,49
216,90	29,86
217,11	2,87
217,33	31,37
217,55	27,16
217,77	32,77
217,98	9,01
218,20	27,69
218,42	25,07
218,64	27,12
218,85	12,82
219,07	30,27
219,29	21,38
219,51	22,12
219,73	21,50
219,94	16,79
220,16	32,15
220,38	16,59
220,60	19,13
220,81	26,13
221,03	12,78
221,25	17,37
221,47	18,23
221,68	31,37
221,90	28,92
222,12	15,40
222,34	21,91
222,55	29,29
222,77	31,13
222,99	31,29
223,21	13,39
223,42	16,59
223,64	35,27
223,86	31,54
224,08	22,86
224,29	25,27
224,51	19,58
224,73	28,18
224,94	17,00
225,16	11,92
225,38	20,11
225,60	39,65
225,81	34,94
226,03	16,47
226,25	29,90
226,47	26,46
226,68	25,27
226,90	30,56
227,12	27,93
227,33	18,68
227,55	24,29
227,77	23,55
227,99	18,47
228,20	30,23
228,42	35,92
228,64	27,81
228,86	23,88
229,07	29,94
229,29	11,30
229,51	12,33
229,72	21,42
229,94	30,92
230,16	24,33
230,38	8,93
230,59	13,48
230,81	24,33
231,03	21,42
231,24	10,65
231,46	34,20
231,68	16,10
231,89	15,81
232,11	24,21
232,33	19,66
232,55	23,22
232,76	22,77
232,98	18,96
233,20	14,91
233,41	29,70
233,63	30,43
233,85	19,54
234,06	23,92
234,28	6,18
234,50	24,41
234,71	28,79
234,93	37,64
235,15	26,21
235,37	23,55
235,58	27,93
235,80	7,91
236,02	7,17
236,23	31,42
236,45	39,73
236,67	26,42
236,88	24,37
237,10	19,25
237,32	9,17
237,53	31,21
237,75	21,22
237,97	19,50
238,18	26,54
238,40	26,62
238,62	13,84
238,83	19,05
239,05	21,09
239,27	22,40
239,48	27,85
239,70	27,07
239,92	15,20
240,13	18,23
240,35	16,79
240,57	19,62
240,78	20,40
241,00	30,47
241,22	21,71
241,43	27,36
241,65	30,47
241,87	36,90
242,08	30,27
242,30	33,91
242,52	26,01
242,73	14,58
242,95	23,10
243,16	33,46
243,38	30,39
243,60	22,94
243,81	17,90
244,03	37,81
244,25	29,00
244,46	26,54
244,68	30,56
244,90	19,66
245,11	15,48
245,33	22,24
245,55	23,02
245,76	22,36
245,98	19,62
246,19	27,24
246,41	27,12
246,63	20,36
246,84	28,55
247,06	9,34
247,28	15,40
247,49	28,34
247,71	26,46
247,92	15,93
248,14	29,04
248,36	3,89
248,57	26,95
248,79	25,93
249,01	22,81
249,22	18,51
249,44	18,88
249,65	22,40
249,87	19,37
250,09	26,79
250,30	26,42
250,52	14,21
250,73	40,22
250,95	30,88
251,17	5,20
251,38	24,21
251,60	18,68
251,81	29,94
252,03	29,82
252,25	22,61
252,46	18,64
252,68	30,72
252,89	23,31
253,11	29,70
253,33	33,26
253,54	21,54
253,76	19,37
253,97	45,30
254,19	20,64
254,41	23,96
254,62	30,92
254,84	26,95
255,05	20,52
255,27	18,88
255,49	25,07
255,70	18,35
255,92	19,46
256,13	27,03
256,35	37,11
256,56	33,50
256,78	29,94
257,00	28,14
257,21	31,87
257,43	14,46
257,64	16,18
257,86	33,26
258,08	27,03
258,29	28,84
258,51	25,07
258,72	14,87
258,94	12,78
259,15	26,50
259,37	18,80
259,59	27,73
259,80	14,17
260,02	36,41
260,23	17,49
260,45	28,84
260,66	22,81
260,88	30,27
261,09	24,04
261,31	31,91
261,53	21,75
261,74	23,67
261,96	19,37
262,17	27,44
262,39	21,67
262,60	35,31
262,82	25,97
263,03	25,64
263,25	16,38
263,46	27,44
263,68	6,59
263,90	19,05
264,11	26,30
264,33	27,89
264,54	23,02
264,76	29,24
264,97	17,49
265,19	17,12
265,40	33,30
265,62	11,84
265,83	29,41
266,05	38,46
266,26	21,26
266,48	29,41
266,70	23,10
266,91	16,51
267,13	31,13
267,34	27,32
267,56	14,21
267,77	32,48
267,99	26,95
268,20	18,92
268,42	28,75
268,63	20,73
268,85	23,47
269,06	31,13
269,28	23,10
269,49	33,30
269,71	11,14
269,92	18,51
270,14	20,07
270,35	27,12
270,57	25,44
270,78	38,71
271,00	18,64
271,21	15,89
271,43	22,24
271,64	12,98
271,86	19,87
272,07	29,24
272,29	35,27
272,50	21,71
272,72	21,26
272,93	18,19
273,15	25,72
273,36	16,38
273,58	23,67
273,79	26,79
274,01	31,78
274,22	23,55
274,44	24,78
274,65	34,65
274,87	18,92
275,08	29,49
275,30	18,96
275,51	41,90
275,73	49,81
275,94	31,13
276,16	27,16
276,37	26,13
276,59	11,92
276,80	27,07
277,02	33,91
277,23	34,24
277,45	25,97
277,66	24,41
277,88	30,11
278,09	29,74
278,30	26,58
278,52	12,04
278,73	29,37
278,95	44,97
279,16	13,80
279,38	19,66
279,59	17,20
279,81	35,92
280,02	25,39
280,24	30,43
280,45	11,88
280,67	22,81
280,88	27,77
281,09	27,48
281,31	20,03
281,52	29,65
281,74	32,97
281,95	16,83
282,17	16,47
282,38	26,01
282,60	15,69
282,81	29,70
283,02	36,70
283,24	30,35
283,45	30,97
283,67	26,75
283,88	32,56
284,10	17,65
284,31	25,23
284,53	19,17
284,74	16,63
284,95	14,91
285,17	25,68
285,38	32,64
285,60	17,08
285,81	27,12
286,03	15,61
286,24	27,89
286,45	32,03
286,67	33,30
286,88	22,32
287,10	22,53
287,31	17,82
287,53	20,85
287,74	18,19
287,95	21,46
288,17	31,83
288,38	22,28
288,60	34,41
288,81	20,64
289,02	11,71
289,24	26,01
289,45	23,22
289,67	17,65
289,88	18,88
290,10	12,21
290,31	19,41
290,52	20,56
290,74	28,30
290,95	16,88
291,17	42,76
291,38	31,70
291,59	15,24
291,81	27,24
292,02	20,56
292,24	21,05
292,45	22,28
292,66	17,04
292,88	27,52
293,09	21,54
293,31	26,05
293,52	24,62
293,73	28,55
293,95	32,40
294,16	34,12
294,37	31,01
294,59	30,23
294,80	28,02
295,02	39,81
295,23	21,59
295,44	19,74
295,66	34,53
295,87	18,47
296,09	23,14
296,30	31,05
296,51	12,62
296,73	44,36
296,94	33,26
297,15	23,96
297,37	20,11
297,58	25,72
297,79	18,92
298,01	22,00
298,22	27,73
298,44	19,58
298,65	16,26
298,86	30,19
299,08	29,53
299,29	13,84
299,50	8,19
299,72	42,47
299,93	38,79
300,14	22,81
300,36	17,28
300,57	27,61
300,79	23,35
301,00	15,36
301,21	21,34
301,43	11,59
301,64	25,68
301,85	36,25
302,07	15,93
302,28	12,00
302,49	25,07
302,71	8,81
302,92	16,47
303,13	38,75
303,35	24,08
303,56	22,77
303,77	15,36
303,99	36,70
304,20	27,24
304,41	23,06
304,63	24,17
304,84	21,22
305,05	18,35
305,27	27,32
305,48	34,45
305,69	29,37
305,91	24,86
306,12	27,48
306,33	19,37
306,55	17,74
306,76	26,50
306,97	31,01
307,19	28,47
307,40	8,64
307,61	24,17
307,82	21,14
308,04	26,87
308,25	34,73
308,46	22,16
308,68	24,62
308,89	18,80
309,10	21,59
309,32	24,13
309,53	32,69
309,74	14,95
309,96	30,15
310,17	27,77
310,38	24,99
310,59	32,93
310,81	22,61
311,02	29,04
311,23	25,68
311,45	20,27
311,66	36,29
311,87	30,35
312,09	28,06
312,30	30,11
312,51	37,97
312,72	21,30
312,94	20,03
313,15	24,17
313,36	25,35
313,58	35,84
313,79	16,34
314,00	24,21
314,21	22,08
314,43	17,82
314,64	45,22
314,85	24,00
315,06	17,65
315,28	34,86
315,49	25,44
315,70	25,72
315,92	33,91
316,13	18,47
316,34	28,84
316,55	25,44
316,77	6,88
316,98	-2,66
317,19	23,55
317,40	8,07
317,62	30,64
317,83	14,58
318,04	11,55
318,25	15,44
318,47	27,69
318,68	10,28
318,89	16,67
319,11	25,56
319,32	30,68
319,53	35,35
319,74	16,96
319,96	17,45
320,17	38,34
320,38	23,35
320,59	27,89
320,81	17,53
321,02	23,55
321,23	34,00
321,44	33,55
321,65	15,93
321,87	37,52
322,08	32,24
322,29	22,08
322,50	42,35
322,72	19,46
322,93	28,84
323,14	14,66
323,35	7,13
323,57	34,16
323,78	31,09
323,99	30,88
324,20	46,45
324,41	23,26
324,63	33,67
324,84	34,04
325,05	23,59
325,26	22,65
325,48	22,73
325,69	22,36
325,90	25,11
326,11	26,58
326,32	10,08
326,54	12,21
326,75	21,54
326,96	35,96
327,17	21,30
327,39	22,04
327,60	21,91
327,81	18,10
328,02	17,41
328,23	39,28
328,45	27,98
328,66	40,80
328,87	38,87
329,08	38,62
329,29	58,65
329,51	60,99
329,72	83,60
329,93	106,86
330,14	89,00
330,35	80,32
330,56	76,06
330,78	45,63
330,99	31,13
331,20	14,01
331,41	36,00
331,62	28,92
331,84	32,81
332,05	28,51
332,26	34,32
332,47	25,97
332,68	34,53
332,90	39,77
333,11	18,64
333,32	37,89
333,53	36,00
333,74	22,24
333,95	22,53
334,17	21,30
334,38	25,19
334,59	28,67
334,80	25,44
335,01	43,38
335,22	28,55
335,44	15,24
335,65	11,06
335,86	31,21
336,07	36,49
336,28	22,90
336,49	16,96
336,71	11,92
336,92	21,30
337,13	27,20
337,34	27,36
337,55	27,89
337,76	18,76
337,97	34,57
338,19	28,06
338,40	17,41
338,61	27,98
338,82	44,20
339,03	29,49
339,24	19,41
339,45	17,20
339,67	12,21
339,88	33,05
340,09	26,46
340,30	26,83
340,51	19,13
340,72	32,81
340,93	28,59
341,15	33,55
341,36	21,59
341,57	39,20
341,78	13,52
341,99	19,01
342,20	23,43
342,41	24,37
342,62	25,07
342,84	19,50
343,05	28,71
343,26	21,83
343,47	11,30
343,68	20,64
343,89	25,72
344,10	12,12
344,31	28,67
344,53	11,96
344,74	21,05
344,95	33,63
345,16	28,43
345,37	28,30
345,58	15,93
345,79	22,94
346,00	34,08
346,21	30,47
346,42	13,93
346,64	22,90
346,85	37,93
347,06	33,05
347,27	39,65
347,48	36,04
347,69	26,79
347,90	30,11
348,11	33,10
348,32	36,25
348,53	25,27
348,75	17,37
348,96	23,51
349,17	12,66
349,38	38,67
349,59	16,47
349,80	22,94
350,01	31,95
350,22	39,53
350,43	30,47
350,64	26,71
350,85	18,15
351,06	21,09
351,28	40,10
351,49	20,27
351,70	12,62
351,91	23,39
352,12	33,46
352,33	11,76
352,54	21,22
352,75	27,24
352,96	22,61
353,17	25,27
353,38	24,99
353,59	39,53
353,80	31,74
354,01	16,26
354,22	10,98
354,44	15,73
354,65	33,79
354,86	35,43
355,07	19,74
355,28	22,28
355,49	27,69
355,70	20,36
355,91	31,91
356,12	13,93
356,33	16,63
356,54	33,14
356,75	27,93
356,96	31,21
357,17	21,67
357,38	17,37
357,59	7,99
357,80	31,50
358,01	21,59
358,22	29,94
358,43	27,32
358,64	28,71
358,85	26,09
359,07	41,86
359,28	21,79
359,49	15,15
359,70	9,75
359,91	18,84
360,12	25,31
360,33	20,56
360,54	14,01
360,75	11,30
360,96	25,27
361,17	23,39
361,38	33,38
361,59	25,39
361,80	26,54
362,01	28,75
362,22	19,21
362,43	29,12
362,64	16,22
362,85	19,01
363,06	33,10
363,27	29,00
363,48	22,77
363,69	48,00
363,90	25,19
364,11	29,61
364,32	26,01
364,53	30,64
364,74	24,94
364,95	19,41
365,16	26,54
365,37	28,30
365,58	26,91
365,79	8,15
366,00	23,67
366,21	14,83
366,42	23,18
366,63	29,57
366,84	15,97
367,05	35,47
367,26	28,51
367,47	36,54
367,68	34,32
367,89	13,60
368,10	3,81
368,31	28,30
368,52	28,55
368,73	27,20
368,94	14,58
369,15	27,32
369,36	38,13
369,57	15,69
369,78	20,89
369,99	26,34
370,20	23,14
370,40	23,51
370,61	14,75
370,82	28,67
371,03	32,07
371,24	20,03
371,45	30,47
371,66	27,98
371,87	36,45
372,08	23,31
372,29	16,63
372,50	21,79
372,71	24,08
372,92	27,69
373,13	19,82
373,34	26,50
373,55	26,13
373,76	23,67
373,97	19,29
374,18	11,92
374,39	25,76
374,60	39,36
374,81	17,45
375,01	14,29
375,22	21,54
375,43	16,92
375,64	21,75
375,85	24,66
376,06	29,65
376,27	29,70
376,48	29,49
376,69	37,97
376,90	24,82
377,11	22,40
377,32	23,22
377,53	27,48
377,74	25,52
377,94	26,17
378,15	32,03
378,36	29,08
378,57	19,05
378,78	33,67
378,99	17,24
379,20	16,30
379,41	19,41
379,62	19,54
379,83	32,36
380,04	34,49
380,25	33,30
380,45	24,82
380,66	37,40
380,87	33,14
381,08	17,65
381,29	22,36
381,50	5,00
381,71	28,22
381,92	28,71
382,13	33,46
382,34	15,52
382,55	25,31
382,75	26,58
382,96	19,33
383,17	5,32
383,38	29,82
383,59	28,02
383,80	29,90
384,01	25,97
384,22	24,86
384,43	19,58
384,63	27,03
384,84	17,24
385,05	30,15
385,26	29,00
385,47	34,98
385,68	27,16
385,89	16,47
386,10	22,36
386,30	20,44
386,51	35,59
386,72	25,85
386,93	20,64
387,14	31,13
387,35	21,01
387,56	39,77
387,77	16,88
387,97	24,78
388,18	28,63
388,39	25,60
388,60	18,72
388,81	25,48
389,02	33,30
389,23	18,72
389,43	17,20
389,64	19,25
389,85	24,58
390,06	34,12
390,27	30,76
390,48	27,16
390,69	28,63
390,89	20,23
391,10	22,98
391,31	14,87
391,52	40,63
391,73	25,64
391,94	27,73
392,14	27,44
392,35	26,09
392,56	11,92
392,77	16,55
392,98	29,82
393,19	33,67
393,39	23,31
393,60	27,36
393,81	29,04
394,02	8,81
394,23	23,39
394,44	24,21
394,64	20,73
394,85	20,40
395,06	27,44
395,27	28,30
395,48	31,42
395,69	38,71
395,89	23,67
396,10	25,56
396,31	30,06
396,52	22,16
396,73	15,93
396,93	13,07
397,14	30,43
397,35	33,59
397,56	29,33
397,77	26,66
397,97	12,74
398,18	17,24
398,39	10,53
398,60	30,47
398,81	17,04
399,01	29,49
399,22	30,27
399,43	34,98
399,64	17,49
399,85	17,45
400,05	22,32
400,26	37,15
400,47	31,54
400,68	35,55
400,89	29,04
401,09	27,93
401,30	23,96
401,51	32,85
401,72	36,33
401,93	26,38
402,13	32,69
402,34	28,55
402,55	27,57
402,76	20,64
402,96	41,57
403,17	29,12
403,38	13,56
403,59	-0,57
403,80	17,20
404,00	44,36
404,21	25,68
404,42	35,31
404,63	9,99
404,83	17,74
405,04	30,31
405,25	34,20
405,46	33,34
405,66	12,37
405,87	20,48
406,08	18,43
406,29	21,71
406,49	31,37
406,70	29,94
406,91	18,88
407,12	28,92
407,32	22,36
407,53	19,17
407,74	25,76
407,95	31,78
408,15	28,47
408,36	24,21
408,57	25,89
408,78	13,19
408,98	29,78
409,19	10,16
409,40	16,55
409,61	23,39
409,81	20,89
410,02	30,02
410,23	14,62
410,44	39,65
410,64	13,23
410,85	25,52
411,06	13,76
411,26	35,10
411,47	18,02
411,68	30,19
411,89	23,72
412,09	42,35
412,30	21,50
412,51	32,44
412,72	32,85
412,92	19,66
413,13	21,59
413,34	19,91
413,54	28,79
413,75	18,80
413,96	37,44
414,17	33,59
414,37	33,83
414,58	26,21
414,79	24,70
414,99	23,39
415,20	35,80
415,41	37,52
415,61	36,62
415,82	27,93
416,03	21,22
416,24	27,48
416,44	26,30
416,65	48,78
416,86	31,21
417,06	14,13
417,27	46,33
417,48	30,60
417,68	21,38
417,89	28,38
418,10	22,45
418,30	36,74
418,51	20,36
418,72	36,29
418,92	29,78
419,13	38,46
419,34	35,02
419,55	18,55
419,75	31,58
419,96	31,46
420,17	30,51
420,37	23,96
420,58	20,48
420,79	24,33
420,99	29,70
421,20	22,49
421,41	22,49
421,61	17,69
421,82	31,42
422,03	21,46
422,23	19,17
422,44	11,35
422,65	28,38
422,85	24,82
423,06	24,29
423,26	25,60
423,47	33,91
423,68	20,64
423,88	13,19
424,09	26,42
424,30	27,36
424,50	21,14
424,71	33,42
424,92	18,23
425,12	42,43
425,33	35,88
425,54	29,70
425,74	27,65
425,95	37,07
426,15	20,27
426,36	20,27
426,57	26,62
426,77	25,89
426,98	21,87
427,19	28,92
427,39	18,06
427,60	20,60
427,81	34,69
428,01	21,87
428,22	20,03
428,42	34,69
428,63	15,32
428,84	23,88
429,04	20,81
429,25	16,26
429,45	34,12
429,66	26,05
429,87	32,19
430,07	24,33
430,28	26,17
430,49	35,18
430,69	19,78
430,90	26,34
431,10	32,97
431,31	26,09
431,52	36,78
431,72	30,72
431,93	26,38
432,13	34,00
432,34	36,66
432,55	26,71
432,75	17,61
432,96	27,61
433,16	34,20
433,37	20,81
433,58	20,07
433,78	37,93
433,99	21,71
434,19	28,75
434,40	24,04
434,60	23,84
434,81	32,28
435,02	30,88
435,22	29,65
435,43	21,46
435,63	34,94
435,84	30,68
436,05	20,93
436,25	21,75
436,46	12,62
436,66	38,83
436,87	29,74
437,07	36,62
437,28	34,90
437,48	27,28
437,69	17,08
437,90	19,62
438,10	21,50
438,31	1,35
438,51	11,71
438,72	18,84
438,92	20,27
439,13	43,87
439,34	46,57
439,54	28,14
439,75	29,29
439,95	33,01
440,16	33,91
440,36	27,73
440,57	27,77
440,77	20,40
440,98	20,81
441,18	15,73
441,39	16,02
441,60	21,09
441,80	23,80
442,01	15,77
442,21	19,58
442,42	14,09
442,62	24,08
442,83	30,11
443,03	21,01
443,24	9,42
443,44	33,38
443,65	20,97
443,85	23,72
444,06	4,42
444,26	31,29
444,47	26,01
444,67	30,97
444,88	20,89
445,09	24,94
445,29	42,31
445,50	17,28
445,70	18,84
445,91	20,36
446,11	30,35
446,32	35,72
446,52	27,16
446,73	39,32
446,93	30,11
447,14	30,27
447,34	17,41
447,55	26,99
447,75	33,30
447,96	29,08
448,16	16,34
448,37	19,58
448,57	22,81
448,78	26,58
448,98	24,29
449,19	21,71
449,39	31,78
449,60	24,21
449,80	29,82
450,01	31,01
450,21	17,04
450,42	24,49
450,62	25,03
450,83	19,41
451,03	30,76
451,23	22,81
451,44	22,36
451,64	21,14
451,85	26,99
452,05	25,07
452,26	20,73
452,46	20,07
452,67	30,51
452,87	12,08
453,08	19,37
453,28	36,90
453,49	23,88
453,69	28,38
453,90	31,95
454,10	33,96
454,31	28,14
454,51	27,20
454,71	35,06
454,92	28,14
455,12	22,53
455,33	21,71
455,53	27,32
455,74	28,75
455,94	10,65
456,15	21,30
456,35	18,27
456,55	23,80
456,76	28,79
456,96	26,30
457,17	13,89
457,37	28,75
457,58	22,20
457,78	23,14
457,99	26,79
458,19	46,41
458,39	8,85
458,60	27,24
458,80	32,44
459,01	32,60
459,21	25,39
459,42	17,28
459,62	22,45
459,82	38,30
460,03	12,45
460,23	35,55
460,44	38,83
460,64	34,36
460,85	24,37
461,05	24,13
461,25	24,04
461,46	7,54
461,66	8,03
461,87	34,32
462,07	26,42
462,27	32,93
462,48	34,61
462,68	13,15
462,89	24,58
463,09	32,48
463,29	19,62
463,50	28,10
463,70	25,31
463,91	32,40
464,11	22,90
464,31	16,14
464,52	45,30
464,72	33,22
464,93	17,78
465,13	42,76
465,33	21,83
465,54	27,98
465,74	33,91
465,95	34,65
466,15	22,98
466,35	27,85
466,56	35,51
466,76	37,07
466,96	23,10
467,17	38,17
467,37	16,79
467,58	18,88
467,78	13,19
467,98	27,89
468,19	14,79
468,39	25,48
468,59	35,06
468,80	27,81
469,00	30,97
469,21	36,25
469,41	30,68
469,61	17,45
469,82	31,42
470,02	34,53
470,22	19,29
470,43	16,30
470,63	31,21
470,83	28,47
471,04	11,10
471,24	14,38
471,45	27,77
471,65	19,33
471,85	32,60
472,06	38,50
472,26	28,75
472,46	26,79
472,67	35,27
472,87	40,80
473,07	16,83
473,28	26,21
473,48	31,62
473,68	43,50
473,89	39,98
474,09	18,35
474,29	23,63
474,50	21,75
474,70	15,56
474,90	27,85
475,11	42,72
475,31	36,86
475,51	28,67
475,72	14,66
475,92	26,30
476,12	22,77
476,33	24,37
476,53	30,51
476,73	26,99
476,93	24,00
477,14	19,91
477,34	30,35
477,54	36,25
477,75	31,37
477,95	34,98
478,15	25,07
478,36	32,19
478,56	17,49
478,76	28,47
478,97	20,56
479,17	33,67
479,37	27,20
479,57	34,20
479,78	39,98
479,98	14,17
480,18	11,26
480,39	23,31
480,59	14,42
480,79	17,41
480,99	30,60
481,20	30,02
481,40	24,74
481,60	12,12
481,81	24,37
482,01	23,47
482,21	24,62
482,41	35,02
482,62	42,47
482,82	23,88
483,02	7,37
483,23	28,34
483,43	26,50
483,63	38,75
483,83	5,04
484,04	24,08
484,24	14,21
484,44	36,21
484,64	34,82
484,85	8,85
485,05	25,11
485,25	24,58
485,45	23,10
485,66	28,43
485,86	15,73
486,06	29,24
486,26	21,34
486,47	34,90
486,67	23,59
486,87	12,45
487,07	18,84
487,28	15,89
487,48	21,79
487,68	16,83
487,88	29,49
488,09	27,16
488,29	26,50
488,49	30,47
488,69	9,30
488,90	42,88
489,10	31,70
489,30	21,50
489,50	35,27
489,71	21,91
489,91	21,09
490,11	39,81
490,31	29,65
490,52	13,89
490,72	25,15
490,92	25,39
491,12	16,96
491,32	24,41
491,53	23,43
491,73	27,57
491,93	31,09
492,13	23,72
492,33	32,11
492,54	30,76
492,74	19,82
492,94	18,55
493,14	30,80
493,35	27,32
493,55	24,53
493,75	19,13
493,95	21,59
494,15	36,62
494,36	30,84
494,56	25,56
494,76	19,66
494,96	36,41
495,16	23,02
495,37	32,85
495,57	16,18
495,77	30,97
495,97	16,02
496,17	35,76
496,37	20,36
496,58	32,28
496,78	30,88
496,98	46,28
497,18	62,30
497,38	73,89
497,59	92,36
497,79	77,13
497,99	70,70
498,19	55,38
498,39	45,67
498,59	34,12
498,80	20,77
499,00	33,83
499,20	29,12
499,40	18,51
499,60	28,10
499,80	32,77
500,01	28,22
500,21	41,33
500,41	26,50
500,61	19,17
500,81	25,93
501,01	28,55
501,22	20,19
501,42	15,52
501,62	19,91
501,82	25,52
502,02	35,55
502,22	29,74
502,42	33,91
502,63	24,58
502,83	32,52
503,03	10,73
503,23	28,75
503,43	15,15
503,63	37,19
503,83	26,58
504,04	22,98
504,24	19,21
504,44	27,85
504,64	32,19
504,84	32,85
505,04	5,32
505,24	11,71
505,44	29,65
505,65	20,93
505,85	14,70
506,05	24,45
506,25	39,73
506,45	25,35
506,65	20,60
506,85	18,27
507,05	33,75
507,26	28,02
507,46	24,99
507,66	19,46
507,86	19,09
508,06	32,56
508,26	37,07
508,46	29,65
508,66	34,36
508,86	19,17
509,06	19,17
509,27	19,66
509,47	31,01
509,67	26,21
509,87	29,04
510,07	31,83
510,27	13,80
510,47	20,44
510,67	17,24
510,87	36,00
511,07	40,75
511,28	13,15
511,48	38,62
511,68	11,02
511,88	21,63
512,08	23,92
512,28	33,26
512,48	35,55
512,68	14,09
512,88	16,42
513,08	34,49
513,28	33,59
513,48	28,06
513,68	17,74
513,89	23,55
514,09	34,41
514,29	38,30
514,49	32,89
514,69	39,48
514,89	37,81
515,09	27,07
515,29	33,87
515,49	31,33
515,69	19,87
515,89	34,49
516,09	31,54
516,29	28,34
516,49	24,82
516,69	38,79
516,89	18,96
517,09	16,38
517,29	37,56
517,50	28,34
517,70	26,54
517,90	15,52
518,10	19,58
518,30	33,14
518,50	24,90
518,70	21,75
518,90	26,13
519,10	25,48
519,30	26,95
519,50	27,89
519,70	37,81
519,90	35,27
520,10	31,99
520,30	28,14
520,50	27,52
520,70	29,90
520,90	25,52
521,10	30,31
521,30	28,67
521,50	26,83
521,70	37,07
521,90	33,87
522,10	38,17
522,30	32,97
522,50	17,08
522,70	33,14
522,90	38,22
523,10	33,26
523,30	23,92
523,50	26,95
523,70	27,20
523,90	23,84
524,10	39,44
524,30	27,40
524,50	34,04
524,70	32,69
524,90	26,25
525,10	24,90
525,30	26,95
525,50	19,91
525,70	23,55
525,90	22,36
526,10	25,80
526,30	15,93
526,50	36,49
526,70	15,61
526,90	21,71
527,10	19,91
527,30	28,14
527,50	27,65
527,70	34,53
527,90	25,23
528,10	15,48
528,30	33,50
528,50	24,13
528,70	27,81
528,90	26,91
529,10	32,56
529,30	26,54
529,50	30,56
529,70	11,26
529,90	33,42
530,10	27,61
530,29	32,56
530,49	18,55
530,69	23,67
530,89	20,40
531,09	33,30
531,29	41,12
531,49	19,21
531,69	20,97
531,89	20,44
532,09	34,90
532,29	27,89
532,49	27,20
532,69	33,30
532,89	24,45
533,09	21,79
533,29	20,97
533,49	25,72
533,68	35,35
533,88	17,00
534,08	25,39
534,28	26,09
534,48	12,21
534,68	15,15
534,88	13,68
535,08	28,92
535,28	29,61
535,48	19,01
535,68	22,69
535,88	13,35
536,08	35,35
536,27	19,13
536,47	18,43
536,67	21,14
536,87	22,32
537,07	36,49
537,27	31,46
537,47	23,14
537,67	27,93
537,87	10,73
538,07	19,41
538,27	15,97
538,46	40,43
538,66	19,74
538,86	49,85
539,06	49,32
539,26	25,44
539,46	21,71
539,66	31,29
539,86	19,78
540,06	26,50
540,25	31,95
540,45	14,17
540,65	52,63
540,85	29,90
541,05	26,75
541,25	27,07
541,45	42,80
541,65	31,66
541,85	22,49
542,04	43,95
542,24	30,84
542,44	9,67
542,64	23,02
542,84	42,35
543,04	26,42
543,24	23,47
543,43	23,47
543,63	23,35
543,83	27,65
544,03	31,70
544,23	26,95
544,43	16,83
544,63	8,85
544,82	22,81
545,02	17,33
545,22	30,06
545,42	27,85
545,62	24,25
545,82	22,90
546,02	17,90
546,21	35,06
546,41	26,58
546,61	28,30
546,81	26,83
547,01	36,37
547,21	22,32
547,40	29,20
547,60	28,88
547,80	42,56
548,00	21,22
548,20	29,78
548,40	26,17
548,59	25,85
548,79	29,86
548,99	44,56
549,19	29,45
549,39	29,33
549,59	22,86
549,78	29,74
549,98	20,44
550,18	29,61
550,38	33,30
550,58	35,96
550,77	25,35
550,97	27,85
551,17	22,90
551,37	25,72
551,57	24,29
551,76	41,12
551,96	44,77
552,16	32,81
552,36	24,37
552,56	28,26
552,75	33,42
552,95	21,50
553,15	22,57
553,35	41,41
553,55	30,11
553,74	38,79
553,94	18,76
554,14	29,53
554,34	32,40
554,54	37,27
554,73	44,89
554,93	35,92
555,13	19,74
555,33	32,56
555,53	19,99
555,72	24,86
555,92	49,23
556,12	37,31
556,32	37,31
556,51	29,98
556,71	33,38
556,91	25,35
557,11	34,32
557,30	37,56
557,50	41,45
557,70	24,33
557,90	35,96
558,10	41,78
558,29	34,61
558,49	16,96
558,69	26,38
558,89	33,63
559,08	30,02
559,28	30,31
559,48	33,75
559,68	24,58
559,87	31,95
560,07	43,66
560,27	34,16
560,47	40,22
560,66	24,00
560,86	39,32
561,06	24,25
561,25	35,31
561,45	24,86
561,65	40,80
561,85	38,83
562,04	32,44
562,24	30,35
562,44	29,65
562,64	41,33
562,83	44,85
563,03	27,52
563,23	50,30
563,42	44,07
563,62	35,10
563,82	37,15
564,02	46,49
564,21	47,47
564,41	33,38
564,61	29,82
564,80	48,70
565,00	33,14
565,20	41,70
565,40	48,21
565,59	41,45
565,79	34,16
565,99	39,28
566,18	28,47
566,38	40,96
566,58	46,82
566,78	52,35
566,97	77,78
567,17	126,11
567,37	191,81
567,56	272,42
567,76	357,17
567,96	414,75
568,15	438,35
568,35	439,54
568,55	375,11
568,74	291,63
568,94	225,73
569,14	180,10
569,33	135,82
569,53	106,70
569,73	89,86
569,92	80,32
570,12	75,61
570,32	61,36
570,52	62,22
570,71	50,95
570,91	27,93
571,11	42,56
571,30	42,23
571,50	38,05
571,70	49,11
571,89	51,65
572,09	59,15
572,28	61,23
572,48	45,26
572,68	55,25
572,87	39,28
573,07	55,75
573,27	56,93
573,46	44,20
573,66	44,56
573,86	61,93
574,05	61,81
574,25	37,97
574,45	55,83
574,64	56,52
574,84	38,50
575,04	48,62
575,23	43,74
575,43	55,58
575,62	53,98
575,82	60,91
576,02	44,11
576,21	57,10
576,41	47,96
576,61	43,46
576,80	51,16
577,00	55,91
577,19	48,33
577,39	53,53
577,59	62,05
577,78	51,40
577,98	54,44
578,18	48,13
578,37	58,41
578,57	61,64
578,76	67,01
578,96	64,88
579,16	56,77
579,35	49,27
579,55	62,87
579,74	67,21
579,94	61,56
580,14	63,73
580,33	68,61
580,53	75,90
580,72	78,48
580,92	59,76
581,12	84,91
581,31	66,93
581,51	76,35
581,70	97,36
581,90	75,57
582,10	97,03
582,29	63,90
582,49	72,17
582,68	82,57
582,88	98,63
583,07	101,74
583,27	109,20
583,47	127,55
583,66	124,97
583,86	151,80
584,05	165,07
584,25	185,79
584,44	204,59
584,64	225,69
584,84	216,55
585,03	226,18
585,23	199,06
585,42	206,80
585,62	186,90
585,81	214,46
586,01	219,17
586,20	205,94
586,40	237,73
586,60	256,45
586,79	288,60
586,99	376,42
587,18	653,18
587,38	2286,72
587,57	7713,88
587,77	17614,54
587,96	31310,86
588,16	46842,12
588,35	61751,83
588,55	63959,54
588,75	63954,13
588,94	63982,15
589,14	64027,86
589,33	58641,00
589,53	46435,27
589,72	34028,11
589,92	24981,29
590,11	17719,64
590,31	12738,65
590,50	8978,25
590,70	6197,56
590,89	4213,25
591,09	2734,28
591,28	1757,28
591,48	1152,88
591,67	783,55
591,87	559,26
592,06	446,17
592,26	374,70
592,45	295,19
592,65	270,91
592,84	248,66
593,04	207,50
593,23	223,64
593,43	177,89
593,62	172,36
593,82	152,12
594,01	156,55
594,21	146,06
594,40	136,52
594,60	125,75
594,79	131,11
594,99	141,23
595,18	138,57
595,38	135,90
595,57	114,28
595,77	122,30
595,96	115,34
596,16	103,01
596,35	96,38
596,55	90,73
596,74	103,50
596,94	99,74
597,13	81,39
597,33	92,45
597,52	80,40
597,72	88,92
597,91	79,30
598,11	72,95
598,30	69,96
598,50	71,84
598,69	93,59
598,88	69,84
599,08	68,28
599,27	67,38
599,47	66,07
599,66	59,64
599,86	60,87
600,05	64,51
600,25	55,34
600,44	57,43
600,64	66,07
600,83	48,41
601,02	57,67
601,22	68,16
601,41	59,76
601,61	61,32
601,80	57,26
602,00	59,92
602,19	56,52
602,38	50,75
602,58	59,88
602,77	64,51
602,97	56,07
603,16	69,18
603,36	69,47
603,55	66,80
603,74	54,31
603,94	45,67
604,13	42,56
604,33	54,48
604,52	58,20
604,72	66,60
604,91	61,44
605,10	52,51
605,30	38,22
605,49	43,58
605,69	54,23
605,88	59,88
606,07	52,14
606,27	48,82
606,46	56,65
606,66	53,90
606,85	57,22
607,04	42,72
607,24	45,63
607,43	49,27
607,63	60,82
607,82	41,04
608,01	52,26
608,21	55,66
608,40	43,74
608,60	31,29
608,79	43,21
608,98	43,05
609,18	52,18
609,37	43,34
609,57	44,93
609,76	53,94
609,95	46,12
610,15	42,23
610,34	35,35
610,53	42,72
610,73	33,71
610,92	40,39
611,11	54,72
611,31	42,52
611,50	37,44
611,70	38,62
611,89	44,81
612,08	37,76
612,28	34,69
612,47	35,63
612,66	39,85
612,86	34,00
613,05	35,18
613,24	46,65
613,44	44,32
613,63	44,15
613,82	36,95
614,02	41,78
614,21	51,57
614,41	62,22
614,60	67,42
614,79	71,31
614,99	102,77
615,18	108,95
615,37	120,71
615,57	113,17
615,76	114,40
615,95	97,93
616,15	88,35
616,34	65,25
616,53	60,09
616,73	50,58
616,92	47,31
617,11	46,37
617,30	21,22
617,50	29,86
617,69	31,09
617,88	30,88
618,08	38,17
618,27	-3,77
618,46	38,17
618,66	22,28
618,85	36,00
619,04	27,36
619,24	35,39
619,43	32,19
619,62	34,28
619,82	32,97
620,01	31,21
620,20	41,49
620,39	44,81
620,59	36,13
620,78	26,38
620,97	46,28
621,17	35,84
621,36	38,22
621,55	24,78
621,74	31,62
621,94	33,67
622,13	47,68
622,32	27,32
622,52	44,07
622,71	16,92
622,90	41,04
623,09	45,87
623,29	30,84
623,48	29,37
623,67	23,96
623,86	27,20
624,06	18,68
624,25	25,85
624,44	39,73
624,64	43,66
624,83	20,07
625,02	31,13
625,21	21,09
625,41	23,96
625,60	35,72
625,79	24,86
625,98	27,57
626,18	20,68
626,37	45,87
626,56	21,91
626,75	43,09
626,95	23,14
627,14	33,83
627,33	28,67
627,52	20,44
627,72	39,77
627,91	22,32
628,10	28,14
628,29	36,13
628,49	33,87
628,68	18,27
628,87	32,52
629,06	33,18
629,25	21,67
629,45	24,17
629,64	34,32
629,83	28,02
630,02	39,12
630,22	27,32
630,41	15,65
630,60	34,28
630,79	21,95
630,98	19,05
631,18	36,17
631,37	35,31
631,56	20,85
631,75	18,39
631,94	23,96
632,14	41,37
632,33	21,14
632,52	30,56
632,71	57,22
632,90	38,22
633,10	20,36
633,29	25,89
633,48	16,75
633,67	33,55
633,86	18,84
634,06	32,77
634,25	17,41
634,44	32,85
634,63	26,13
634,82	31,50
635,02	34,08
635,21	16,63
635,40	23,84
635,59	22,40
635,78	37,97
635,97	13,07
636,17	19,95
636,36	31,17
636,55	28,75
636,74	32,11
636,93	25,23
637,12	43,62
637,32	22,77
637,51	28,26
637,70	32,11
637,89	22,12
638,08	22,77
638,27	23,22
638,47	24,94
638,66	26,75
638,85	16,22
639,04	20,32
639,23	21,75
639,42	30,31
639,62	25,27
639,81	34,53
640,00	10,65
640,19	26,62
640,38	20,19
640,57	36,74
640,76	27,69
640,95	10,32
641,15	21,26
641,34	38,99
641,53	43,95
641,72	30,11
641,91	22,08
642,10	26,75
642,29	31,21
642,49	25,44
642,68	20,97
642,87	14,99
643,06	21,01
643,25	34,57
643,44	29,98
643,63	30,11
643,82	29,12
644,01	13,43
644,21	35,23
644,40	20,44
644,59	27,48
644,78	32,03
644,97	42,56
645,16	11,84
645,35	28,88
645,54	33,63
645,73	23,31
645,92	23,18
646,12	16,30
646,31	15,48
646,50	26,83
646,69	24,41
646,88	20,40
647,07	29,65
647,26	21,54
647,45	40,39
647,64	16,30
647,83	22,65
648,02	16,92
648,22	29,82
648,41	30,15
648,60	25,52
648,79	31,25
648,98	38,30
649,17	23,10
649,36	20,36
649,55	27,57
649,74	17,45
649,93	35,59
650,12	15,81
650,31	23,47
650,50	18,10
650,69	21,22
650,88	32,89
651,08	40,26
651,27	25,31
651,46	21,59
651,65	29,33
651,84	40,10
652,03	13,93
652,22	16,47
652,41	20,93
652,60	36,90
652,79	29,86
652,98	25,11
653,17	16,06
653,36	31,46
653,55	30,51
653,74	20,77
653,93	29,41
654,12	23,92
654,31	19,50
654,50	24,37
654,69	16,96
654,88	27,65
655,07	25,76
655,26	14,01
655,45	19,78
655,64	20,77
655,83	5,61
656,02	20,27
656,21	16,02
656,40	33,96
656,59	25,64
656,78	28,26
656,97	17,98
657,17	14,62
657,36	32,69
657,55	22,28
657,74	39,69
657,93	27,93
658,12	16,55
658,31	27,44
658,50	13,19
658,69	17,37
658,87	11,26
659,06	24,86
659,25	25,07
659,44	24,37
659,63	30,64
659,82	15,61
660,01	15,48
660,20	12,94
660,39	12,78
660,58	11,55
660,77	28,22
660,96	35,35
661,15	16,92
661,34	27,77
661,53	32,11
661,72	19,01
661,91	21,30
662,10	24,62
662,29	16,14
662,48	30,84
662,67	26,58
662,86	7,37
663,05	24,90
663,24	16,75
663,43	25,76
663,62	31,33
663,81	30,19
664,00	26,71
664,19	30,80
664,38	29,20
664,57	12,16
664,76	26,62
664,94	-1,35
665,13	19,74
665,32	9,34
665,51	12,66
665,70	-1,47
665,89	15,85
666,08	19,74
666,27	15,15
666,46	27,32
666,65	17,82
666,84	29,86
667,03	14,34
667,22	10,20
667,41	24,49
667,60	30,92
667,78	23,76
667,97	27,36
668,16	20,48
668,35	33,18
668,54	21,34
668,73	7,25
668,92	20,52
669,11	28,88
669,30	20,85
669,49	19,82
669,68	29,61
669,86	26,46
670,05	33,18
670,24	36,82
670,43	33,34
670,62	19,05
670,81	15,85
671,00	21,38
671,19	25,80
671,38	30,92
671,57	23,02
671,75	28,06
671,94	16,51
672,13	18,27
672,32	13,60
672,51	33,38
672,70	34,04
672,89	23,02
673,08	20,11
673,26	18,51
673,45	28,14
673,64	13,19
673,83	20,52
674,02	27,57
674,21	28,63
674,40	15,56
674,59	29,61
674,77	15,97
674,96	13,35
675,15	15,36
675,34	20,48
675,53	30,43
675,72	13,80
675,91	4,63
676,09	33,50
676,28	31,46
676,47	17,12
676,66	16,71
676,85	13,72
677,04	16,59
677,22	9,46
677,41	22,61
677,60	18,64
677,79	4,59
677,98	23,35
678,17	14,54
678,36	10,57
678,54	20,19
678,73	15,69
678,92	21,50
679,11	16,67
679,30	28,14
679,48	26,87
679,67	18,88
679,86	26,42
680,05	39,16
680,24	21,34
680,43	10,24
680,61	10,28
680,80	7,82
680,99	-1,64
681,18	16,51
681,37	9,22
681,55	15,93
681,74	20,19
681,93	12,86
682,12	14,01
682,31	22,24
682,49	34,94
682,68	11,63
682,87	22,12
683,06	20,73
683,25	17,90
683,43	19,37
683,62	23,22
683,81	3,24
684,00	30,06
684,19	36,17
684,37	18,31
684,56	20,07
684,75	19,17
684,94	26,50
685,12	24,29
685,31	9,50
685,50	32,40
685,69	18,80
685,88	30,97
686,06	30,97
686,25	20,97
686,44	27,20
686,63	18,27
686,81	21,95
687,00	25,31
687,19	26,01
687,38	25,56
687,56	16,63
687,75	23,92
687,94	29,49
688,13	20,48
688,31	25,56
688,50	31,54
688,69	17,65
688,88	17,20
689,06	38,95
689,25	30,84
689,44	18,23
689,63	24,94
689,81	23,96
690,00	18,72
690,19	23,26
690,38	26,58
690,56	12,21
690,75	24,82
690,94	12,98
691,13	17,04
691,31	26,50
691,50	19,21
691,69	13,19
691,87	25,15
692,06	9,50
692,25	16,06
692,44	24,25
692,62	21,95
692,81	37,03
693,00	18,76
693,18	28,38
693,37	17,49
693,56	7,37
693,75	23,84
693,93	18,88
694,12	23,10
694,31	31,17
694,49	17,53
694,68	27,52
694,87	24,58
695,05	35,72
695,24	74,26
695,43	101,70
695,62	133,32
695,80	169,98
695,99	197,51
696,18	186,08
696,36	160,85
696,55	126,85
696,74	102,52
696,92	82,16
697,11	53,25
697,30	67,46
697,48	51,85
697,67	44,85
697,86	47,55
698,04	32,85
698,23	34,12
698,42	20,85
698,60	32,64
698,79	19,78
698,98	29,41
699,16	13,76
699,35	14,17
699,54	24,99
699,72	17,20
699,91	20,93
700,10	21,46
700,28	27,52
700,47	26,38
700,66	20,07
700,84	26,99
701,03	8,11
701,21	15,77
701,40	27,81
701,59	33,67
701,77	16,96
701,96	21,38
702,15	26,25
702,33	32,11
702,52	18,88
702,71	29,86
702,89	33,10
703,08	13,72
703,26	46,24
703,45	29,78
703,64	22,65
703,82	25,89
704,01	21,05
704,20	17,00
704,38	23,06
704,57	26,62
704,75	23,02
704,94	26,58
705,13	4,10
705,31	39,28
705,50	55,01
705,68	91,71
705,87	113,50
706,06	142,95
706,24	133,81
706,43	104,16
706,61	100,35
706,80	76,72
706,99	61,97
707,17	41,45
707,36	63,36
707,54	31,50
707,73	29,82
707,92	50,22
708,10	28,63
708,29	20,93
708,47	29,90
708,66	15,65
708,84	30,06
709,03	29,45
709,22	24,37
709,40	30,39
709,59	26,50
709,77	24,08
709,96	20,93
710,14	12,86
710,33	14,54
710,52	24,62
710,70	3,77
710,89	23,14
711,07	21,95
711,26	31,62
711,44	7,05
711,63	16,38
711,81	31,66
712,00	13,97
712,19	12,78
712,37	37,35
712,56	35,96
712,74	25,07
712,93	21,75
713,11	14,83
713,30	16,47
713,48	9,67
713,67	30,80
713,85	24,74
714,04	34,20
714,22	31,91
714,41	25,89
714,59	23,63
714,78	37,44
714,97	31,33
715,15	35,06
715,34	12,21
715,52	22,73
715,71	18,47
715,89	13,89
716,08	13,80
716,26	12,98
716,45	12,57
716,63	20,44
716,82	22,53
717,00	9,09
717,19	17,57
717,37	26,05
717,56	35,51
717,74	19,82
717,93	13,68
718,11	21,75
718,30	30,80
718,48	15,77
718,67	31,74
718,85	22,98
719,04	24,58
719,22	21,42
719,41	31,74
719,59	28,10
719,78	21,05
719,96	25,39
720,15	15,69
720,33	14,58
720,52	17,33
720,70	7,58
720,88	27,48
721,07	14,91
721,25	20,93
721,44	23,18
721,62	18,64
721,81	21,59
721,99	24,70
722,18	22,00
722,36	24,74
722,55	21,67
722,73	9,79
722,92	11,80
723,10	19,41
723,28	21,50
723,47	20,77
723,65	16,75
723,84	25,68
724,02	16,47
724,21	22,57
724,39	27,40
724,58	24,21
724,76	23,80
724,94	17,86
725,13	26,09
725,31	31,33
725,50	19,41
725,68	33,79
725,87	22,36
726,05	36,78
726,23	46,45
726,42	53,00
726,60	61,23
726,79	68,98
726,97	62,95
727,16	53,12
727,34	53,62
727,52	41,74
727,71	39,57
727,89	24,90
728,08	29,90
728,26	21,83
728,44	24,21
728,63	27,77
728,81	21,59
729,00	26,01
729,18	28,79
729,36	9,79
729,55	30,43
729,73	12,90
729,92	36,82
730,10	15,28
730,28	23,55
730,47	39,48
730,65	22,12
730,84	31,62
731,02	6,84
731,20	36,04
731,39	20,15
731,57	24,58
731,75	28,88
731,94	16,34
732,12	20,60
732,31	32,77
732,49	23,55
732,67	21,46
732,86	29,65
733,04	16,02
733,22	25,72
733,41	22,65
733,59	17,16
733,78	31,87
733,96	36,21
734,14	22,94
734,33	17,61
734,51	35,72
734,69	23,06
734,88	21,34
735,06	27,20
735,24	18,92
735,43	19,66
735,61	15,93
735,79	28,10
735,98	27,73
736,16	16,83
736,34	25,03
736,53	21,59
736,71	31,66
736,89	36,29
737,08	61,85
737,26	92,69
737,44	136,23
737,63	187,68
737,81	204,88
737,99	208,77
738,18	167,44
738,36	158,51
738,54	129,51
738,73	83,88
738,91	74,10
739,09	60,21
739,28	37,48
739,46	41,41
739,64	45,59
739,82	34,86
740,01	24,66
740,19	34,20
740,37	42,31
740,56	12,04
740,74	24,13
740,92	24,29
741,11	18,10
741,29	35,43
741,47	20,19
741,65	21,09
741,84	36,49
742,02	20,64
742,20	28,43
742,39	24,45
742,57	10,90
742,75	25,07
742,93	15,81
743,12	6,84
743,30	25,31
743,48	15,44
743,67	18,96
743,85	19,99
744,03	19,50
744,21	16,63
744,40	30,31
744,58	23,63
744,76	23,18
744,94	30,56
745,13	21,42
745,31	30,60
745,49	15,20
745,67	13,48
745,86	11,10
746,04	15,61
746,22	17,33
746,40	22,73
746,59	17,24
746,77	22,77
746,95	2,99
747,13	26,05
747,32	13,89
747,50	18,23
747,68	23,14
747,86	17,98
748,05	26,42
748,23	19,37
748,41	18,96
748,59	19,99
748,77	39,32
748,96	25,27
749,14	53,78
749,32	93,06
749,50	123,21
749,69	162,44
749,87	166,46
750,05	190,38
750,23	183,70
750,41	190,26
750,60	200,37
750,78	197,67
750,96	194,84
751,14	180,55
751,32	163,06
751,51	117,23
751,69	88,92
751,87	64,14
752,05	67,99
752,23	53,08
752,42	47,31
752,60	34,69
752,78	52,14
752,96	19,91
753,14	32,48
753,33	25,48
753,51	21,22
753,69	40,34
753,87	37,40
754,05	16,26
754,23	34,04
754,42	22,28
754,60	24,53
754,78	22,57
754,96	12,49
755,14	28,34
755,32	29,86
755,51	17,90
755,69	28,55
755,87	26,30
756,05	11,43
756,23	12,94
756,41	34,82
756,60	33,75
756,78	28,22
756,96	18,88
757,14	12,00
757,32	23,55
757,50	17,53
757,68	31,83
757,87	26,05
758,05	21,22
758,23	27,03
758,41	30,47
758,59	21,79
758,77	37,64
758,95	26,01
759,14	19,54
759,32	17,65
759,50	17,33
759,68	18,47
759,86	23,96
760,04	31,05
760,22	17,74
760,40	13,89
760,59	26,71
760,77	18,64
760,95	36,45
761,13	31,54
761,31	33,96
761,49	23,10
761,67	38,50
761,85	39,03
762,03	71,15
762,22	165,48
762,40	322,68
762,58	520,72
762,76	679,19
762,94	774,79
763,12	779,62
763,30	692,42
763,48	556,27
763,66	381,25
763,84	264,31
764,02	188,58
764,21	133,77
764,39	111,37
764,57	84,70
764,75	67,83
764,93	64,31
765,11	73,97
765,29	71,72
765,47	95,07
765,65	107,44
765,83	109,89
766,01	102,81
766,19	98,38
766,37	89,25
766,56	80,44
766,74	37,68
766,92	43,95
767,10	33,22
767,28	21,59
767,46	26,42
767,64	23,26
767,82	23,51
768,00	25,68
768,18	28,10
768,36	24,82
768,54	32,03
768,72	33,18
768,90	57,22
769,08	56,65
769,26	56,28
769,44	46,16
769,62	59,10
769,80	48,41
769,98	47,88
770,16	48,70
770,34	35,39
770,52	34,45
770,71	43,17
770,89	38,13
771,07	69,47
771,25	107,89
771,43	185,10
771,61	261,65
771,79	296,30
771,97	303,67
772,15	283,60
772,33	226,34
772,51	161,46
772,69	120,42
772,87	78,85
773,05	58,74
773,23	53,17
773,41	52,80
773,59	32,89
773,77	41,37
773,95	30,68
774,13	39,65
774,31	46,41
774,49	38,95
774,67	24,49
774,85	40,55
775,03	13,72
775,21	41,04
775,39	20,60
775,57	34,77
775,75	34,32
775,93	19,13
776,10	15,48
776,28	12,12
776,46	23,35
776,64	19,37
776,82	20,32
777,00	-122,14
777,18	14,79
777,36	21,79
777,54	6,80
777,72	10,53
777,90	21,34
778,08	16,34
778,26	14,87
778,44	16,92
778,62	16,55
778,80	15,48
778,98	23,88
779,16	15,28
779,34	21,38
779,52	19,91
779,70	25,64
779,88	35,27
780,05	27,61
780,23	31,01
780,41	20,07
780,59	22,90
780,77	42,19
780,95	29,16
781,13	26,99
781,31	42,31
781,49	19,95
781,67	23,59
781,85	17,98
782,03	10,65
782,21	17,53
782,39	19,78
782,56	4,01
782,74	30,43
782,92	19,17
783,10	21,34
783,28	21,18
783,46	32,73
783,64	13,93
783,82	24,04
784,00	18,68
784,18	20,85
784,35	16,30
784,53	24,58
784,71	13,84
784,89	25,68
785,07	26,62
785,25	23,63
785,43	31,83
785,61	18,19
785,79	18,68
785,96	32,60
786,14	16,51
786,32	17,86
786,50	7,78
786,68	22,57
786,86	21,34
787,04	15,81
787,22	17,61
787,39	19,33
787,57	17,82
787,75	28,18
787,93	11,80
788,11	10,90
788,29	22,81
788,47	19,58
788,65	21,46
788,82	31,37
789,00	18,76
789,18	14,62
789,36	23,55
789,54	23,43
789,72	20,77
789,89	11,63
790,07	15,15
790,25	27,03
790,43	43,42
790,61	34,12
790,79	30,92
790,96	15,24
791,14	24,86
791,32	31,29
791,50	24,53
791,68	44,15
791,86	30,11
792,03	16,30
792,21	24,25
792,39	21,91
792,57	29,37
792,75	12,98
792,93	28,02
793,10	38,50
793,28	24,62
793,46	48,95
793,64	53,49
793,82	93,14
793,99	144,14
794,17	169,65
794,35	170,43
794,53	149,75
794,71	116,94
794,88	92,04
795,06	73,56
795,24	54,76
795,42	43,54
795,60	43,54
795,77	30,56
795,95	34,82
796,13	39,16
796,31	36,37
796,49	30,43
796,66	31,25
796,84	26,58
797,02	37,19
797,20	23,67
797,37	37,60
797,55	25,03
797,73	28,79
797,91	25,39
798,08	30,80
798,26	22,77
798,44	29,94
798,62	22,90
798,80	26,58
798,97	17,16
799,15	26,79
799,33	43,21
799,51	67,54
799,68	72,66
799,86	89,91
800,04	106,00
800,22	131,32
800,39	163,14
800,57	178,66
800,75	181,33
800,93	177,93
801,10	171,17
801,28	150,73
801,46	114,97
801,63	72,01
801,81	59,27
801,99	56,93
802,17	44,65
802,34	42,72
802,52	48,41
802,70	30,84
802,88	39,16
803,05	34,12
803,23	20,68
803,41	37,11
803,58	32,36
803,76	25,97
803,94	35,72
804,12	43,01
804,29	26,38
804,47	23,92
804,65	39,16
804,82	28,47
805,00	31,05
805,18	22,28
805,35	29,53
805,53	31,37
805,71	15,81
805,89	22,45
806,06	31,58
806,24	23,02
806,42	14,58
806,59	26,95
806,77	25,07
806,95	13,80
807,12	19,54
807,30	23,67
807,48	21,63
807,65	15,77
807,83	22,57
808,01	18,10
808,18	35,80
808,36	34,20
808,54	13,64
808,71	36,58
808,89	37,64
809,07	56,93
809,24	88,76
809,42	129,10
809,60	174,08
809,77	175,31
809,95	208,16
810,13	212,54
810,30	237,77
810,48	309,65
810,66	398,70
810,83	461,24
811,01	490,12
811,18	470,13
811,36	416,52
811,54	329,48
811,71	228,27
811,89	172,32
812,07	111,78
812,24	102,97
812,42	94,78
812,59	78,19
812,77	73,56
812,95	52,39
813,12	60,70
813,30	55,95
813,48	54,97
813,65	46,86
813,83	42,60
814,00	50,58
814,18	40,84
814,36	43,58
814,53	35,06
814,71	26,13
814,88	42,60
815,06	29,16
815,24	31,25
815,41	25,89
815,59	29,24
815,76	17,82
815,94	32,44
816,12	20,07
816,29	33,30
816,47	41,00
816,64	48,17
816,82	53,53
817,00	101,46
817,17	191,20
817,35	285,32
817,52	378,10
817,70	463,78
817,87	505,81
818,05	484,18
818,23	517,93
818,40	567,70
818,58	664,65
818,75	762,17
818,93	801,37
819,10	786,05
819,28	680,58
819,46	561,80
819,63	422,41
819,81	299,70
819,98	215,24
820,16	184,28
820,33	151,22
820,51	148,60
820,68	123,08
820,86	104,57
821,03	101,46
821,21	90,44
821,39	95,76
821,56	84,21
821,74	73,28
821,91	65,33
822,09	62,14
822,26	58,69
822,44	50,99
822,61	55,75
822,79	43,29
822,96	32,81
823,14	28,26
823,31	23,76
823,49	21,46
823,66	33,05
823,84	22,00
824,01	19,33
824,19	20,68
824,36	32,81
824,54	18,06
824,71	27,69
824,89	30,80
825,06	48,58
825,24	45,75
825,41	55,50
825,59	87,61
825,76	98,47
825,94	103,63
826,11	88,39
826,29	100,23
826,46	75,77
826,64	63,90
826,81	53,53
826,99	53,37
827,16	47,27
827,34	45,10
827,51	41,41
827,69	40,80
827,86	27,48
828,04	32,11
828,21	33,22
828,39	45,34
828,56	19,46
828,74	27,07
828,91	35,72
829,09	19,95
829,26	30,56
829,43	23,47
829,61	16,75
829,78	31,33
829,96	18,31
830,13	20,60
830,31	34,32
830,48	26,95
830,66	33,59
830,83	20,73
831,01	22,98
831,18	27,81
831,35	22,49
831,53	28,38
831,70	28,63
831,88	25,31
832,05	26,25
832,23	24,37
832,40	38,79
832,57	27,20
832,75	12,53
832,92	38,87
833,10	29,20
833,27	28,84
833,45	27,36
833,62	32,89
833,79	25,93
833,97	16,67
834,14	12,33
834,32	23,35
834,49	26,01
834,66	22,57
834,84	26,42
835,01	24,70
835,19	18,68
835,36	16,14
835,53	35,47
835,71	41,90
835,88	14,66
836,06	35,14
836,23	34,41
836,40	20,60
836,58	12,82
836,75	18,47
836,93	27,16
837,10	38,42
837,27	29,65
837,45	30,97
837,62	9,46
837,79	31,74
837,97	22,24
838,14	27,73
838,32	21,34
838,49	14,99
838,66	28,22
838,84	38,46
839,01	24,08
839,18	32,44
839,36	32,81
839,53	49,48
839,70	38,83
839,88	77,74
840,05	104,04
840,23	94,74
840,40	102,69
840,57	101,09
840,75	85,85
840,92	85,20
841,09	82,41
841,27	83,64
841,44	99,78
841,61	107,15
841,79	130,62
841,96	144,05
842,13	139,84
842,31	147,13
842,48	121,20
842,65	90,40
842,83	72,25
843,00	69,63
843,17	59,76
843,35	51,61
843,52	45,96
843,69	41,57
843,86	31,58
844,04	27,52
844,21	33,05
844,38	14,95
844,56	58,00
844,73	33,18
844,90	31,33
845,08	24,58
845,25	20,85
845,42	20,68
845,60	41,82
845,77	36,86
845,94	23,18
846,11	36,04
846,29	27,65
846,46	18,80
846,63	37,03
846,81	29,04
846,98	25,56
847,15	25,97
847,32	25,44
847,50	21,01
847,67	22,32
847,84	31,58
848,01	20,23
848,19	18,10
848,36	24,78
848,53	17,04
848,71	29,86
848,88	23,88
849,05	23,47
849,22	26,71
849,40	16,42
849,57	30,31
849,74	25,27
849,91	23,10
850,09	13,60
850,26	13,03
850,43	27,20
850,60	37,60
850,78	27,89
850,95	23,80
851,12	43,21
851,29	31,33
851,47	48,33
851,64	36,29
851,81	57,06
851,98	52,67
852,15	57,38
852,33	40,80
852,50	44,65
852,67	35,06
852,84	43,09
853,02	35,39
853,19	34,61
853,36	34,73
853,53	29,78
853,70	25,68
853,88	24,17
854,05	33,75
854,22	28,43
854,39	37,76
854,56	19,50
854,74	40,75
854,91	6,02
855,08	11,84
855,25	31,29
855,42	21,46
855,60	29,29
855,77	14,46
855,94	26,34
856,11	29,37
856,28	31,99
856,46	38,58
856,63	32,97
856,80	36,95
856,97	21,59
857,14	18,72
857,31	17,41
857,49	32,07
857,66	16,59
857,83	37,81
858,00	10,36
858,17	19,70
858,34	46,41
858,52	25,76
858,69	10,90
858,86	26,54
859,03	29,41
859,20	29,65
859,37	36,04
859,55	28,47
859,72	35,06
859,89	23,67
860,06	34,00
860,23	21,34
860,40	18,96
860,57	26,38
860,75	8,93
860,92	29,08
861,09	5,78
861,26	24,29
861,43	14,83
861,60	20,64
861,77	19,99
861,95	32,97
862,12	25,52
862,29	23,47
862,46	39,44
862,63	20,32
862,80	19,46
862,97	26,75
863,14	27,73
863,31	36,82
863,49	23,26
863,66	22,86
863,83	25,93
864,00	6,88
864,17	29,04
864,34	33,14
864,51	14,29
864,68	19,25
864,85	-0,86
865,02	21,54
865,20	27,32
865,37	25,07
865,54	33,42
865,71	25,89
865,88	16,26
866,05	30,97
866,22	17,12
866,39	39,98
866,56	16,96
866,73	17,33
866,90	36,29
867,07	22,32
867,25	23,47
867,42	42,19
867,59	12,21
867,76	24,49
867,93	23,10
868,10	21,38
868,27	23,88
868,44	24,90
868,61	17,74
868,78	26,05
868,95	32,07
869,12	21,50
869,29	34,98
869,46	19,29
869,63	38,34
869,80	26,95
869,97	20,11
870,14	31,17
870,32	19,37
870,49	31,46
870,66	18,64
870,83	26,71
871,00	30,39
871,17	15,52
871,34	24,78
871,51	27,69
871,68	6,06
871,85	17,33
872,02	23,51
872,19	14,42
872,36	8,81
872,53	20,60
872,70	23,06
872,87	20,68
873,04	26,13
873,21	21,05
873,38	18,64
873,55	21,87
873,72	21,91
873,89	26,54
874,06	23,31
874,23	22,45
874,40	25,72
874,57	31,70
874,74	28,14
874,91	25,56
875,08	17,53
875,25	17,20
875,42	22,32
875,59	14,62
875,76	26,95
875,93	21,14
876,10	25,27
876,27	25,76
876,44	19,05
876,61	20,68
876,78	31,01
876,95	22,45
877,12	24,74
877,29	32,03
877,46	29,08
877,62	25,93
877,79	17,16
877,96	22,32
878,13	34,41
878,30	33,87
878,47	21,95
878,64	35,92
878,81	22,00
878,98	21,75
879,15	23,35
879,32	22,24
879,49	28,51
879,66	26,95
879,83	33,30
880,00	33,67
880,17	26,58
880,34	23,39
880,51	28,22
880,67	14,09
880,84	17,24
881,01	24,90
881,18	23,26
881,35	18,88
881,52	12,53
881,69	19,17
881,86	19,70
882,03	22,16
882,20	21,83
882,37	16,88
882,54	10,08
882,70	21,63
882,87	24,78
883,04	27,24
883,21	13,11
883,38	12,25
883,55	34,77
883,72	20,81
883,89	21,05
884,06	9,34
884,23	7,17
884,39	33,10
884,56	34,12
884,73	21,30
884,90	22,53
885,07	29,78
885,24	25,23
885,41	21,95
885,58	2,21
885,74	33,91
885,91	34,94
886,08	15,11
886,25	33,38
886,42	19,01
886,59	24,86
886,76	24,45
886,93	17,04
887,09	25,03
887,26	43,50
887,43	40,10
887,60	17,33
887,77	24,45
887,94	24,90
888,10	42,88
888,27	39,28
888,44	25,97
888,61	17,33
888,78	24,25
888,95	35,51
889,12	23,47
889,28	27,69
889,45	27,32
889,62	35,55
889,79	27,03
889,96	23,14
890,13	24,37
890,29	19,62
890,46	15,20
890,63	16,34
890,80	24,86
890,97	31,66
891,13	29,00
891,30	29,57
891,47	29,37
891,64	21,30
891,81	17,61
891,98	26,50
892,14	35,10
892,31	21,46
892,48	38,26
892,65	26,42
892,82	28,92
892,98	17,45
893,15	16,30
893,32	31,17
>>>>>End Processed Spectral Data<<<<<
