SpectraSuite Datei
++++++++++++++++++++++++++++++++++++
Datum: Tue Dec 13 15:46:32 CET 2016
Benutzer: Admin
Dark-Spektrum vorhanden: Ja
Referenz-Spektrum vorhanden: Nein
Zahl der probierten Teilspektren: 1
Spektrometer: USB4F05832
Integrationszeit (usec): 80000 (USB4F05832)
Spektren Durchschnitt berechnet: 50 (USB4F05832)
Boxcar Glättung: 0 (USB4F05832)
Dunkelstromkorrektur: Nein (USB4F05832)
Puls/Lampe aktiviert: Nein (USB4F05832)
Correct for Detector Non-linearity: Nein (USB4F05832)
Streulichtkorrektur: Nein (USB4F05832)
Anzahl Pixel in verarbeitetem Spektrum: 3648
>>>>>Begin Processed Spectral Data<<<<<
177,54	10,49
177,75	10,49
177,97	10,49
178,19	9,13
178,41	20,07
178,63	5,32
178,85	-1,02
179,07	3,44
179,29	3,36
179,51	5,86
179,73	6,39
179,95	11,39
180,17	6,64
180,39	-0,49
180,61	13,11
180,83	15,11
181,05	3,65
181,27	20,89
181,49	30,15
181,71	45,59
181,92	57,63
182,14	54,48
182,36	40,88
182,58	56,07
182,80	42,56
183,02	49,15
183,24	61,97
183,46	50,67
183,68	49,44
183,90	44,15
184,12	48,00
184,34	49,64
184,56	40,80
184,78	56,93
185,00	52,35
185,21	47,68
185,43	56,89
185,65	52,31
185,87	50,54
186,09	44,28
186,31	45,30
186,53	41,90
186,75	58,94
186,97	48,91
187,19	50,34
187,41	48,95
187,63	52,63
187,84	61,97
188,06	43,62
188,28	45,55
188,50	52,71
188,72	34,94
188,94	49,36
189,16	46,49
189,38	54,03
189,60	49,93
189,82	54,64
190,03	51,04
190,25	48,66
190,47	37,11
190,69	60,17
190,91	45,38
191,13	43,34
191,35	42,80
191,57	45,83
191,79	52,26
192,01	38,09
192,22	44,11
192,44	43,66
192,66	44,52
192,88	40,96
193,10	47,35
193,32	64,10
193,54	52,84
193,76	56,73
193,98	38,26
194,19	38,79
194,41	67,99
194,63	61,68
194,85	65,00
195,07	53,33
195,29	41,21
195,51	42,07
195,73	42,11
195,94	70,33
196,16	46,24
196,38	58,29
196,60	40,59
196,82	66,72
197,04	49,19
197,26	53,62
197,48	59,55
197,69	47,27
197,91	59,84
198,13	51,85
198,35	44,28
198,57	69,26
198,79	31,58
199,01	46,37
199,22	51,20
199,44	55,01
199,66	50,18
199,88	48,37
200,10	55,09
200,32	60,25
200,54	53,12
200,75	38,38
200,97	40,30
201,19	57,38
201,41	65,54
201,63	53,62
201,85	43,83
202,06	47,47
202,28	50,30
202,50	57,26
202,72	46,65
202,94	49,97
203,16	36,09
203,38	42,60
203,59	60,46
203,81	43,74
204,03	47,96
204,25	44,60
204,47	44,52
204,69	42,11
204,90	55,17
205,12	49,48
205,34	50,99
205,56	56,48
205,78	56,36
206,00	57,18
206,21	55,83
206,43	38,58
206,65	75,00
206,87	56,48
207,09	38,22
207,30	44,77
207,52	55,09
207,74	61,07
207,96	59,88
208,18	44,15
208,40	56,85
208,61	51,61
208,83	51,32
209,05	57,47
209,27	48,70
209,49	42,43
209,70	47,59
209,92	31,91
210,14	50,71
210,36	31,01
210,58	47,02
210,79	49,81
211,01	61,56
211,23	44,97
211,45	55,13
211,67	53,33
211,88	62,79
212,10	50,34
212,32	50,95
212,54	39,48
212,76	52,59
212,97	49,48
213,19	40,30
213,41	51,40
213,63	54,11
213,85	46,69
214,06	29,74
214,28	60,62
214,50	43,87
214,72	58,61
214,94	49,11
215,15	51,69
215,37	41,49
215,59	40,59
215,81	51,61
216,02	44,07
216,24	43,05
216,46	48,74
216,68	47,72
216,90	44,56
217,11	29,82
217,33	63,08
217,55	51,04
217,77	63,94
217,98	33,10
218,20	47,43
218,42	50,22
218,64	52,31
218,85	44,77
219,07	54,31
219,29	59,60
219,51	65,29
219,73	36,95
219,94	41,41
220,16	43,79
220,38	50,09
220,60	30,88
220,81	55,70
221,03	55,58
221,25	42,35
221,47	51,85
221,68	56,20
221,90	53,53
222,12	46,08
222,34	34,16
222,55	51,77
222,77	39,65
222,99	41,70
223,21	46,98
223,42	43,34
223,64	53,17
223,86	51,32
224,08	51,77
224,29	42,76
224,51	60,50
224,73	54,76
224,94	48,95
225,16	43,70
225,38	50,34
225,60	70,82
225,81	52,43
226,03	32,07
226,25	50,87
226,47	45,59
226,68	40,02
226,90	60,54
227,12	68,03
227,33	45,18
227,55	61,81
227,77	57,06
227,99	64,43
228,20	72,17
228,42	70,12
228,64	68,40
228,86	65,17
229,07	73,89
229,29	57,18
229,51	50,87
229,72	62,05
229,94	57,83
230,16	54,72
230,38	42,72
230,59	45,59
230,81	46,94
231,03	59,27
231,24	46,28
231,46	58,29
231,68	42,47
231,89	47,51
232,11	46,78
232,33	44,93
232,55	52,06
232,76	50,34
232,98	53,33
233,20	39,53
233,41	59,88
233,63	58,24
233,85	52,26
234,06	51,36
234,28	38,54
234,50	48,62
234,71	44,93
234,93	68,98
235,15	54,15
235,37	61,07
235,58	54,84
235,80	30,31
236,02	46,49
236,23	42,60
236,45	58,08
236,67	51,20
236,88	51,24
237,10	55,54
237,32	30,92
237,53	39,73
237,75	48,86
237,97	50,34
238,18	58,65
238,40	56,16
238,62	44,69
238,83	55,01
239,05	43,50
239,27	42,60
239,48	53,41
239,70	48,91
239,92	48,41
240,13	43,34
240,35	41,90
240,57	50,79
240,78	52,63
241,00	45,01
241,22	41,29
241,43	46,41
241,65	59,96
241,87	56,20
242,08	58,61
242,30	62,63
242,52	63,41
242,73	66,80
242,95	44,03
243,16	62,34
243,38	60,62
243,60	51,16
243,81	46,69
244,03	67,21
244,25	55,95
244,46	45,34
244,68	59,84
244,90	56,48
245,11	53,04
245,33	54,11
245,55	52,39
245,76	46,24
245,98	38,50
246,19	56,32
246,41	63,49
246,63	51,49
246,84	59,64
247,06	50,46
247,28	55,05
247,49	61,32
247,71	59,02
247,92	55,54
248,14	53,17
248,36	47,39
248,57	56,07
248,79	50,50
249,01	56,44
249,22	63,61
249,44	52,35
249,65	50,18
249,87	52,47
250,09	60,66
250,30	58,69
250,52	56,20
250,73	59,51
250,95	68,12
251,17	40,10
251,38	63,08
251,60	48,13
251,81	57,51
252,03	62,54
252,25	57,92
252,46	54,76
252,68	65,29
252,89	57,02
253,11	53,17
253,33	49,93
253,54	58,04
253,76	55,05
253,97	78,56
254,19	54,23
254,41	51,53
254,62	61,28
254,84	58,49
255,05	57,06
255,27	57,67
255,49	53,94
255,70	47,80
255,92	64,14
256,13	64,43
256,35	74,83
256,56	70,33
256,78	63,77
257,00	65,99
257,21	65,41
257,43	59,68
257,64	59,47
257,86	67,87
258,08	75,28
258,29	74,96
258,51	71,56
258,72	48,58
258,94	57,92
259,15	65,54
259,37	55,34
259,59	76,31
259,80	61,73
260,02	78,03
260,23	74,05
260,45	79,22
260,66	81,02
260,88	81,10
261,09	90,36
261,31	94,70
261,53	72,74
261,74	80,69
261,96	82,00
262,17	90,77
262,39	86,14
262,60	100,31
262,82	88,19
263,03	100,88
263,25	91,01
263,46	101,70
263,68	91,42
263,90	97,40
264,11	111,37
264,33	104,24
264,54	96,25
264,76	100,27
264,97	106,70
265,19	95,76
265,40	100,23
265,62	82,33
265,83	101,54
266,05	115,05
266,26	97,11
266,48	104,28
266,70	94,62
266,91	98,63
267,13	115,34
267,34	107,76
267,56	99,12
267,77	98,26
267,99	108,09
268,20	105,55
268,42	110,84
268,63	95,64
268,85	94,94
269,06	99,33
269,28	105,88
269,49	96,99
269,71	96,34
269,92	87,16
270,14	94,08
270,35	97,61
270,57	94,25
270,78	118,50
271,00	109,28
271,21	104,57
271,43	99,29
271,64	103,26
271,86	112,52
272,07	113,62
272,29	111,90
272,50	109,69
272,72	112,39
272,93	98,34
273,15	104,32
273,36	112,43
273,58	102,97
273,79	110,02
274,01	112,11
274,22	115,92
274,44	103,95
274,65	118,21
274,87	124,15
275,08	116,65
275,30	105,31
275,51	133,16
275,73	122,71
275,94	131,68
276,16	116,53
276,37	125,05
276,59	108,62
276,80	118,91
277,02	119,72
277,23	114,60
277,45	110,18
277,66	118,13
277,88	125,50
278,09	117,80
278,30	125,01
278,52	113,74
278,73	127,34
278,95	120,71
279,16	118,54
279,38	122,51
279,59	139,51
279,81	149,79
280,02	139,92
280,24	126,52
280,45	117,47
280,67	133,57
280,88	128,74
281,09	136,64
281,31	135,78
281,52	125,62
281,74	136,68
281,95	127,71
282,17	132,26
282,38	149,62
282,60	139,34
282,81	160,07
283,02	173,50
283,24	162,16
283,45	177,85
283,67	189,23
283,88	164,49
284,10	164,57
284,31	158,72
284,53	132,22
284,74	130,74
284,95	146,80
285,17	143,81
285,38	133,73
285,60	140,00
285,81	147,74
286,03	131,40
286,24	127,96
286,45	134,84
286,67	145,90
286,88	143,93
287,10	134,02
287,31	146,63
287,53	129,19
287,74	131,11
287,95	149,34
288,17	144,50
288,38	135,17
288,60	146,39
288,81	135,78
289,02	142,42
289,24	138,20
289,45	137,58
289,67	143,77
289,88	131,15
290,10	125,46
290,31	134,84
290,52	137,83
290,74	134,14
290,95	129,92
291,17	137,71
291,38	146,18
291,59	121,08
291,81	125,83
292,02	116,90
292,24	123,00
292,45	119,48
292,66	125,21
292,88	120,38
293,09	119,15
293,31	109,24
293,52	120,09
293,73	114,77
293,95	112,84
294,16	113,70
294,37	114,36
294,59	107,15
294,80	106,99
295,02	114,48
295,23	92,57
295,44	87,86
295,66	103,63
295,87	83,76
296,09	84,74
296,30	103,87
296,51	86,55
296,73	81,22
296,94	78,19
297,15	70,53
297,37	69,88
297,58	82,62
297,79	77,21
298,01	76,35
298,22	72,05
298,44	68,48
298,65	64,14
298,86	72,99
299,08	76,72
299,29	53,12
299,50	69,34
299,72	84,95
299,93	89,09
300,14	83,15
300,36	68,65
300,57	64,27
300,79	59,84
301,00	63,69
301,21	67,91
301,43	65,70
301,64	77,17
301,85	76,06
302,07	63,77
302,28	61,97
302,49	86,01
302,71	76,88
302,92	89,41
303,13	111,82
303,35	119,77
303,56	118,37
303,77	128,37
303,99	142,70
304,20	130,01
304,41	113,38
304,63	123,94
304,84	103,71
305,05	86,01
305,27	82,29
305,48	84,91
305,69	83,72
305,91	85,40
306,12	82,21
306,33	64,10
306,55	66,76
306,76	93,02
306,97	78,36
307,19	80,69
307,40	78,72
307,61	74,63
307,82	63,08
308,04	86,67
308,25	73,73
308,46	76,72
308,68	78,03
308,89	80,03
309,10	77,58
309,32	72,01
309,53	80,03
309,74	70,45
309,96	75,73
310,17	62,50
310,38	79,09
310,59	72,62
310,81	77,25
311,02	86,87
311,23	86,79
311,45	83,88
311,66	84,34
311,87	77,29
312,09	75,82
312,30	76,59
312,51	79,38
312,72	79,26
312,94	67,34
313,15	73,85
313,36	76,47
313,58	88,92
313,79	70,74
314,00	80,77
314,21	81,59
314,43	69,10
314,64	89,86
314,85	81,96
315,06	76,23
315,28	91,50
315,49	91,09
315,70	81,06
315,92	83,84
316,13	70,98
316,34	88,10
316,55	69,71
316,77	80,77
316,98	63,04
317,19	84,79
317,40	70,08
317,62	83,76
317,83	71,27
318,04	75,16
318,25	90,60
318,47	77,74
318,68	83,39
318,89	92,57
319,11	74,38
319,32	92,20
319,53	89,82
319,74	83,76
319,96	87,20
320,17	97,28
320,38	82,78
320,59	90,44
320,81	87,73
321,02	83,84
321,23	99,04
321,44	97,97
321,65	98,79
321,87	87,73
322,08	95,60
322,29	90,56
322,50	92,45
322,72	84,54
322,93	105,43
323,14	98,67
323,35	87,98
323,57	108,09
323,78	96,58
323,99	94,00
324,20	101,25
324,41	87,28
324,63	99,33
324,84	108,62
325,05	104,28
325,26	96,83
325,48	105,63
325,69	103,26
325,90	112,23
326,11	102,93
326,32	89,37
326,54	112,72
326,75	103,55
326,96	120,91
327,17	123,98
327,39	137,79
327,60	163,39
327,81	222,78
328,02	360,16
328,23	599,07
328,45	959,64
328,66	1480,80
328,87	2062,80
329,08	2706,39
329,29	3476,18
329,51	4236,80
329,72	4804,66
329,93	5052,91
330,14	5023,95
330,35	4450,77
330,56	3680,69
330,78	2555,46
330,99	1570,83
331,20	825,70
331,41	439,41
331,62	270,41
331,84	194,27
332,05	165,39
332,26	159,99
332,47	148,11
332,68	139,43
332,90	143,69
333,11	135,33
333,32	134,10
333,53	121,73
333,74	128,20
333,95	122,71
334,17	117,43
334,38	127,22
334,59	136,97
334,80	110,75
335,01	127,47
335,22	124,43
335,44	121,77
335,65	111,49
335,86	131,64
336,07	132,71
336,28	110,55
336,49	109,16
336,71	102,77
336,92	114,15
337,13	102,97
337,34	121,03
337,55	118,09
337,76	107,15
337,97	123,74
338,19	124,89
338,40	118,37
338,61	117,47
338,82	137,99
339,03	114,52
339,24	122,63
339,45	119,03
339,67	112,76
339,88	125,66
340,09	110,55
340,30	116,82
340,51	108,42
340,72	133,77
340,93	127,55
341,15	124,68
341,36	113,70
341,57	127,14
341,78	110,22
341,99	116,28
342,20	111,98
342,41	131,40
342,62	119,44
342,84	116,16
343,05	122,55
343,26	132,54
343,47	121,20
343,68	116,20
343,89	118,70
344,10	116,61
344,31	121,61
344,53	120,30
344,74	125,25
344,95	127,67
345,16	145,12
345,37	126,77
345,58	114,56
345,79	117,43
346,00	123,86
346,21	129,14
346,42	116,08
346,64	121,98
346,85	131,48
347,06	118,09
347,27	130,82
347,48	138,52
347,69	127,96
347,90	132,38
348,11	138,93
348,32	144,46
348,53	136,15
348,75	131,64
348,96	133,73
349,17	127,79
349,38	139,10
349,59	125,58
349,80	128,65
350,01	137,95
350,22	149,01
350,43	129,47
350,64	131,07
350,85	125,95
351,06	123,12
351,28	136,48
351,49	124,84
351,70	129,39
351,91	135,04
352,12	128,24
352,33	118,70
352,54	131,93
352,75	127,06
352,96	130,13
353,17	144,18
353,38	140,04
353,59	137,54
353,80	153,80
354,01	138,07
354,22	116,53
354,44	144,55
354,65	154,54
354,86	173,59
355,07	145,20
355,28	174,20
355,49	169,69
355,70	175,22
355,91	164,25
356,12	155,52
356,33	161,26
356,54	168,51
356,75	160,03
356,96	164,04
357,17	170,15
357,38	171,66
357,59	180,30
357,80	181,41
358,01	198,94
358,22	195,25
358,43	203,73
358,64	197,71
358,85	191,20
359,07	205,78
359,28	186,49
359,49	159,50
359,70	167,40
359,91	165,64
360,12	158,27
360,33	162,90
360,54	151,30
360,75	146,88
360,96	148,93
361,17	147,04
361,38	146,43
361,59	142,58
361,80	148,23
362,01	154,50
362,22	158,59
362,43	159,82
362,64	151,26
362,85	148,85
363,06	167,81
363,27	149,46
363,48	155,52
363,69	166,87
363,90	155,03
364,11	160,56
364,32	160,89
364,53	158,96
364,74	161,50
364,95	153,47
365,16	150,40
365,37	152,29
365,58	135,90
365,79	151,84
366,00	151,26
366,21	160,72
366,42	155,60
366,63	157,37
366,84	158,59
367,05	160,85
367,26	158,80
367,47	164,33
367,68	164,57
367,89	144,05
368,10	129,68
368,31	143,11
368,52	154,42
368,73	158,68
368,94	150,48
369,15	157,53
369,36	158,51
369,57	144,46
369,78	154,50
369,99	167,77
370,20	155,11
370,40	171,01
370,61	160,19
370,82	164,66
371,03	158,96
371,24	147,86
371,45	154,05
371,66	160,85
371,87	154,79
372,08	161,75
372,29	159,82
372,50	169,65
372,71	163,51
372,92	171,13
373,13	155,44
373,34	172,23
373,55	169,29
373,76	143,36
373,97	163,14
374,18	150,69
374,39	155,69
374,60	173,71
374,81	159,00
375,01	167,16
375,22	164,90
375,43	157,98
375,64	162,65
375,85	160,72
376,06	168,02
376,27	178,30
376,48	184,28
376,69	168,47
376,90	163,96
377,11	174,77
377,32	162,36
377,53	175,14
377,74	181,29
377,94	178,91
378,15	169,69
378,36	163,35
378,57	176,41
378,78	169,53
378,99	171,41
379,20	169,33
379,41	159,74
379,62	151,71
379,83	169,86
380,04	173,67
380,25	180,30
380,45	171,82
380,66	177,11
380,87	180,75
381,08	170,55
381,29	174,69
381,50	153,76
381,71	173,71
381,92	165,39
382,13	171,29
382,34	168,02
382,55	162,49
382,75	181,29
382,96	183,33
383,17	176,25
383,38	195,83
383,59	178,50
383,80	177,52
384,01	167,56
384,22	167,73
384,43	167,48
384,63	160,89
384,84	171,29
385,05	178,01
385,26	160,64
385,47	175,18
385,68	171,50
385,89	169,00
386,10	178,58
386,30	160,36
386,51	175,06
386,72	171,50
386,93	172,89
387,14	173,91
387,35	172,28
387,56	178,01
387,77	171,70
387,97	172,03
388,18	182,56
388,39	179,52
388,60	172,19
388,81	177,15
389,02	185,01
389,23	163,84
389,43	176,70
389,64	167,81
389,85	184,81
390,06	169,04
390,27	195,34
390,48	179,24
390,69	184,36
390,89	185,42
391,10	196,20
391,31	193,25
391,52	207,25
391,73	201,77
391,94	211,92
392,14	212,37
392,35	207,54
392,56	195,91
392,77	196,15
392,98	195,74
393,19	217,29
393,39	231,75
393,60	241,95
393,81	250,67
394,02	248,46
394,23	278,69
394,44	291,59
394,64	268,73
394,85	286,35
395,06	257,18
395,27	243,71
395,48	227,57
395,69	206,64
395,89	202,71
396,10	201,77
396,31	187,27
396,52	193,41
396,73	179,89
396,93	180,92
397,14	190,09
397,35	191,53
397,56	195,54
397,77	180,34
397,97	190,95
398,18	190,67
398,39	176,58
398,60	202,13
398,81	181,70
399,01	174,08
399,22	191,61
399,43	183,66
399,64	180,06
399,85	182,84
400,05	176,08
400,26	183,70
400,47	191,03
400,68	198,28
400,89	185,71
401,09	197,22
401,30	180,96
401,51	195,05
401,72	190,46
401,93	204,18
402,13	207,70
402,34	185,05
402,55	200,37
402,76	224,05
402,96	257,14
403,17	274,18
403,38	287,17
403,59	306,54
403,80	338,37
404,00	346,27
404,21	333,70
404,42	339,10
404,63	300,40
404,83	290,48
405,04	260,58
405,25	230,93
405,46	210,45
405,66	190,79
405,87	194,48
406,08	202,26
406,29	199,76
406,49	196,97
406,70	204,47
406,91	188,54
407,12	206,07
407,32	192,39
407,53	192,88
407,74	216,39
407,95	228,72
408,15	248,09
408,36	252,72
408,57	255,50
408,78	263,74
408,98	249,77
409,19	227,04
409,40	263,41
409,61	240,64
409,81	228,64
410,02	229,62
410,23	197,47
410,44	209,26
410,64	193,98
410,85	192,92
411,06	195,83
411,26	194,76
411,47	195,79
411,68	206,44
411,89	189,76
412,09	224,21
412,30	209,55
412,51	209,51
412,72	221,88
412,92	212,58
413,13	197,47
413,34	203,04
413,54	218,11
413,75	230,31
413,96	289,50
414,17	348,07
414,37	473,82
414,58	606,36
414,79	753,69
414,99	832,91
415,20	942,88
415,41	991,63
415,61	1014,81
415,82	947,14
416,03	834,26
416,24	746,94
416,44	624,75
416,65	518,05
416,86	423,15
417,06	370,89
417,27	370,89
417,48	393,82
417,68	453,63
417,89	520,43
418,10	574,17
418,30	712,61
418,51	835,90
418,72	989,87
418,92	1164,93
419,13	1211,05
419,34	1278,06
419,55	1254,87
419,75	1220,59
419,96	1082,80
420,17	1005,76
420,37	808,29
420,58	606,81
420,79	453,38
420,99	368,55
421,20	287,82
421,41	232,16
421,61	234,16
421,82	221,18
422,03	219,21
422,23	208,85
422,44	220,40
422,65	226,05
422,85	224,54
423,06	220,03
423,26	227,98
423,47	231,01
423,68	225,52
423,88	246,66
424,09	269,80
424,30	308,34
424,50	355,98
424,71	409,68
424,92	448,51
425,12	513,92
425,33	572,65
425,54	642,41
425,74	692,99
425,95	718,84
426,15	758,32
426,36	714,99
426,57	711,46
426,77	644,91
426,98	609,19
427,19	540,01
427,39	475,50
427,60	400,99
427,81	354,42
428,01	305,11
428,22	295,32
428,42	281,92
428,63	316,12
428,84	337,01
429,04	364,17
429,25	401,57
429,45	415,16
429,66	421,68
429,87	428,56
430,07	391,98
430,28	357,12
430,49	348,03
430,69	287,86
430,90	256,08
431,10	259,56
431,31	249,16
431,52	275,41
431,72	287,86
431,93	312,85
432,13	378,67
432,34	410,78
432,55	453,75
432,75	505,89
432,96	511,87
433,16	521,33
433,37	516,37
433,58	491,51
433,78	459,48
433,99	391,61
434,19	374,53
434,40	335,54
434,60	305,27
434,81	289,71
435,02	272,13
435,22	252,51
435,43	232,24
435,63	238,22
435,84	245,51
436,05	225,52
436,25	227,53
436,46	226,01
436,66	242,64
436,87	222,04
437,07	216,43
437,28	242,23
437,48	235,60
437,69	228,68
437,90	227,28
438,10	248,95
438,31	231,58
438,51	244,69
438,72	253,05
438,92	241,54
439,13	256,61
439,34	246,45
439,54	239,20
439,75	228,06
439,95	240,80
440,16	243,50
440,36	227,69
440,57	220,81
440,77	231,34
440,98	231,71
441,18	217,13
441,39	213,69
441,60	238,96
441,80	226,63
442,01	221,71
442,21	237,20
442,42	210,04
442,62	232,61
442,83	227,37
443,03	229,45
443,24	209,71
443,44	220,57
443,65	232,08
443,85	233,47
444,06	214,79
444,26	234,37
444,47	229,58
444,67	237,81
444,88	215,90
445,09	223,56
445,29	241,50
445,50	212,95
445,70	228,51
445,91	209,51
446,11	240,31
446,32	232,90
446,52	222,66
446,73	232,69
446,93	232,94
447,14	224,79
447,34	226,55
447,55	218,93
447,75	227,28
447,96	248,13
448,16	244,04
448,37	251,33
448,57	277,05
448,78	293,23
448,98	297,16
449,19	304,33
449,39	313,22
449,60	334,11
449,80	341,19
450,01	360,97
450,21	341,85
450,42	352,78
450,62	343,03
450,83	330,30
451,03	343,12
451,23	329,60
451,44	313,95
451,64	310,84
451,85	309,49
452,05	294,13
452,26	272,38
452,46	272,26
452,67	260,87
452,87	262,02
453,08	250,92
453,28	251,82
453,49	258,90
453,69	260,91
453,90	280,61
454,10	320,02
454,31	333,41
454,51	359,09
454,71	371,13
454,92	374,25
455,12	375,60
455,33	367,08
455,53	357,94
455,74	343,08
455,94	312,52
456,15	300,27
456,35	267,26
456,55	264,07
456,76	263,61
456,96	255,83
457,17	246,41
457,37	286,92
457,58	284,67
457,78	284,18
457,99	286,51
458,19	321,49
458,39	307,07
458,60	327,35
458,80	356,39
459,01	338,53
459,21	334,11
459,42	338,28
459,62	312,03
459,82	330,38
460,03	285,28
460,23	289,38
460,44	268,41
460,64	272,01
460,85	268,00
461,05	254,07
461,25	263,90
461,46	260,91
461,66	255,26
461,87	281,76
462,07	278,48
462,27	283,60
462,48	286,76
462,68	280,08
462,89	288,19
463,09	317,97
463,29	285,77
463,50	295,03
463,70	289,79
463,91	282,46
464,11	277,79
464,31	276,56
464,52	293,80
464,72	290,81
464,93	301,62
465,13	361,96
465,33	420,24
465,54	479,88
465,74	551,11
465,95	613,94
466,15	635,08
466,35	655,35
466,56	643,27
466,76	605,38
466,96	527,60
467,17	489,38
467,37	415,33
467,58	375,52
467,78	337,22
467,98	301,01
468,19	288,48
468,39	286,47
468,59	293,76
468,80	309,33
469,00	318,58
469,21	332,88
469,41	334,92
469,61	351,72
469,82	345,74
470,02	348,56
470,22	354,59
470,43	330,67
470,63	332,71
470,83	330,05
471,04	297,77
471,24	301,91
471,45	311,78
471,65	290,77
471,85	279,30
472,06	306,70
472,26	300,31
472,46	295,19
472,67	290,57
472,87	300,23
473,07	291,18
473,28	313,05
473,48	318,01
473,68	350,41
473,89	388,70
474,09	392,43
474,29	425,77
474,50	443,26
474,70	445,88
474,90	458,09
475,11	443,06
475,31	434,05
475,51	397,51
475,72	387,64
475,92	374,08
476,12	365,32
476,33	370,52
476,53	368,06
476,73	363,31
476,93	356,67
477,14	331,12
477,34	350,61
477,54	331,40
477,75	330,95
477,95	341,23
478,15	311,37
478,36	333,45
478,56	326,20
478,76	340,86
478,97	338,32
479,17	344,22
479,37	349,18
479,57	344,59
479,78	344,51
479,98	337,91
480,18	337,55
480,39	334,72
480,59	334,60
480,79	335,09
480,99	339,92
481,20	343,57
481,40	325,67
481,60	337,46
481,81	342,50
482,01	334,52
482,21	340,99
482,41	358,19
482,62	372,28
482,82	370,44
483,02	367,36
483,23	388,91
483,43	395,91
483,63	379,69
483,83	373,39
484,04	374,70
484,24	359,95
484,44	366,63
484,64	358,48
484,85	346,27
485,05	348,07
485,25	374,37
485,45	374,90
485,66	374,57
485,86	368,18
486,06	386,45
486,26	388,13
486,47	400,17
486,67	424,46
486,87	441,46
487,07	447,73
487,28	464,32
487,48	486,35
487,68	515,80
487,88	531,28
488,09	528,25
488,29	519,57
488,49	511,38
488,69	489,42
488,90	479,14
489,10	461,65
489,30	442,93
489,50	437,49
489,71	416,19
489,91	397,80
490,11	409,10
490,31	405,66
490,52	393,25
490,72	401,07
490,92	398,66
491,12	387,27
491,32	390,42
491,53	405,78
491,73	405,83
491,93	446,05
492,13	470,54
492,33	516,33
492,54	552,66
492,74	578,22
492,94	584,74
493,14	580,60
493,35	564,50
493,55	547,14
493,75	512,07
493,95	494,34
494,15	475,25
494,36	468,33
494,56	442,20
494,76	444,33
494,96	444,49
495,16	440,48
495,37	436,30
495,57	446,33
495,77	455,22
495,97	464,81
496,17	569,09
496,37	766,10
496,58	1171,85
496,78	1803,61
496,98	2583,84
497,18	3366,82
497,38	4061,04
497,59	4470,39
497,79	4480,01
497,99	4281,07
498,19	3851,82
498,39	3291,13
498,59	2698,81
498,80	2114,86
499,00	1619,78
499,20	1197,53
499,40	859,70
499,60	670,87
499,80	546,93
500,01	499,13
500,21	470,01
500,41	464,85
500,61	433,80
500,81	431,88
501,01	429,50
501,22	418,52
501,42	417,58
501,62	403,33
501,82	420,20
502,02	422,33
502,22	425,28
502,42	419,30
502,63	445,31
502,83	437,36
503,03	438,92
503,23	438,47
503,43	439,58
503,63	447,69
503,83	439,37
504,04	445,84
504,24	454,53
504,44	458,21
504,64	475,95
504,84	491,68
505,04	475,17
505,24	503,88
505,44	506,46
505,65	500,11
505,85	516,78
506,05	501,02
506,25	495,12
506,45	491,18
506,65	469,80
506,85	469,89
507,05	463,29
507,26	453,13
507,46	445,80
507,66	449,94
507,86	452,56
508,06	453,50
508,26	455,59
508,46	449,77
508,66	467,96
508,86	450,27
509,06	442,03
509,27	451,45
509,47	435,85
509,67	451,37
509,87	442,36
510,07	456,90
510,27	454,03
510,47	455,67
510,67	472,26
510,87	474,68
511,07	488,36
511,28	466,61
511,48	475,58
511,68	474,10
511,88	486,39
512,08	467,06
512,28	477,34
512,48	475,66
512,68	466,90
512,88	463,09
513,08	485,94
513,28	521,33
513,48	577,94
513,68	707,86
513,89	880,67
514,09	1098,98
514,29	1324,46
514,49	1491,25
514,69	1597,83
514,89	1611,34
515,09	1563,05
515,29	1461,47
515,49	1317,83
515,69	1159,60
515,89	1033,24
516,09	899,51
516,29	788,22
516,49	677,22
516,69	629,34
516,89	574,66
517,09	545,13
517,29	556,88
517,50	562,74
517,70	570,03
517,90	587,28
518,10	621,15
518,30	643,39
518,50	628,11
518,70	610,91
518,90	624,38
519,10	578,80
519,30	571,79
519,50	559,79
519,70	542,10
519,90	536,69
520,10	540,38
520,30	534,52
520,50	535,30
520,70	563,07
520,90	575,56
521,10	611,11
521,30	632,54
521,50	643,64
521,70	663,42
521,90	666,98
522,10	641,18
522,30	624,14
522,50	604,68
522,70	591,04
522,90	577,94
523,10	560,37
523,30	562,54
523,50	541,52
523,70	562,37
523,90	570,65
524,10	592,11
524,30	586,37
524,50	613,82
524,70	609,93
524,90	621,60
525,10	616,68
525,30	608,53
525,50	601,12
525,70	592,85
525,90	574,78
526,10	555,53
526,30	542,75
526,50	552,46
526,70	532,80
526,90	535,13
527,10	544,55
527,30	550,45
527,50	572,90
527,70	564,09
527,90	556,35
528,10	564,79
528,30	559,10
528,50	575,11
528,70	569,54
528,90	566,18
529,10	556,15
529,30	546,40
529,50	560,04
529,70	537,51
529,90	566,67
530,10	549,96
530,29	560,28
530,49	562,50
530,69	577,28
530,89	574,46
531,09	582,32
531,29	584,45
531,49	571,92
531,69	605,30
531,89	579,58
532,09	591,82
532,29	573,14
532,49	570,44
532,69	581,34
532,89	551,89
533,09	557,05
533,29	554,67
533,49	567,98
533,68	567,53
533,88	572,53
534,08	577,16
534,28	565,85
534,48	576,71
534,68	554,71
534,88	564,71
535,08	582,48
535,28	585,23
535,48	583,47
535,68	577,32
535,88	570,93
536,08	610,42
536,27	600,51
536,47	603,41
536,67	620,53
536,87	613,41
537,07	615,78
537,27	607,92
537,47	608,98
537,67	609,02
537,87	607,22
538,07	621,35
538,27	636,92
538,46	654,41
538,66	649,66
538,86	661,90
539,06	661,37
539,26	654,53
539,46	624,30
539,66	630,36
539,86	628,89
540,06	631,59
540,25	626,97
540,45	633,31
540,65	645,89
540,85	656,91
541,05	658,79
541,25	672,39
541,45	702,25
541,65	688,24
541,85	676,61
542,04	702,13
542,24	683,73
542,44	680,74
542,64	671,12
542,84	675,99
543,04	672,10
543,24	685,21
543,43	702,41
543,63	705,32
543,83	721,38
544,03	725,64
544,23	743,54
544,43	743,04
544,63	738,58
544,82	774,79
545,02	748,29
545,22	777,78
545,42	762,62
545,62	757,05
545,82	745,91
546,02	723,79
546,21	741,08
546,41	728,18
546,61	717,69
546,81	709,54
547,01	714,25
547,21	700,98
547,40	699,50
547,60	697,46
547,80	727,27
548,00	734,69
548,20	801,41
548,40	816,81
548,59	882,63
548,79	930,27
548,99	994,33
549,19	1004,73
549,39	1018,70
549,59	1037,01
549,78	1024,39
549,98	1016,04
550,18	980,49
550,38	949,85
550,58	956,52
550,77	906,51
550,97	906,43
551,17	871,82
551,37	886,73
551,57	894,47
551,76	908,93
551,96	929,25
552,16	933,26
552,36	951,65
552,56	981,39
552,75	1012,72
552,95	1002,44
553,15	1023,98
553,35	1042,78
553,55	1042,74
553,74	1054,38
553,94	1030,13
554,14	1047,58
554,34	1060,89
554,54	1098,41
554,73	1164,97
554,93	1199,04
555,13	1242,58
555,33	1270,23
555,53	1297,59
555,72	1309,31
555,92	1324,67
556,12	1346,33
556,32	1356,66
556,51	1389,87
556,71	1420,43
556,91	1445,62
557,11	1494,40
557,30	1542,20
557,50	1522,91
557,70	1530,08
557,90	1587,38
558,10	1633,58
558,29	1641,65
558,49	1663,07
558,69	1699,24
558,89	1760,27
559,08	1802,50
559,28	1849,60
559,48	1911,04
559,68	1975,47
559,87	2038,02
560,07	2100,40
560,27	2118,75
560,47	2125,63
560,66	2133,74
560,86	2150,41
561,06	2148,69
561,25	2173,75
561,45	2177,32
561,65	2202,47
561,85	2189,77
562,04	2203,08
562,24	2218,56
562,44	2283,24
562,64	2311,83
562,83	2388,01
563,03	2446,01
563,23	2606,53
563,42	2750,14
563,62	2986,27
563,82	3164,93
564,02	3359,77
564,21	3533,28
564,41	3634,28
564,61	3709,77
564,80	3777,15
565,00	3786,65
565,20	3794,48
565,40	3782,15
565,59	3816,02
565,79	3828,02
565,99	3863,25
566,18	3885,20
566,38	3966,42
566,58	4329,61
566,78	5799,56
566,97	8425,75
567,17	11990,82
567,37	18349,51
567,56	26326,97
567,76	33529,55
567,96	39846,80
568,15	44155,07
568,35	45672,00
568,55	43716,84
568,74	40364,73
568,94	36055,84
569,14	30648,75
569,33	25547,63
569,53	21191,81
569,73	17246,89
569,92	13507,42
570,12	10549,37
570,32	8429,60
570,52	7138,40
570,71	6457,53
570,91	6005,09
571,11	5837,49
571,30	5698,10
571,50	5709,53
571,70	5682,29
571,89	5680,08
572,09	5731,90
572,28	5773,10
572,48	5848,30
572,68	5876,61
572,87	5987,56
573,07	6081,24
573,27	6135,35
573,46	6249,99
573,66	6370,62
573,86	6429,11
574,05	6570,70
574,25	6615,27
574,45	6674,00
574,64	6785,66
574,84	6870,24
575,04	6955,23
575,23	7073,77
575,43	7181,82
575,62	7295,15
575,82	7361,92
576,02	7425,36
576,21	7590,55
576,41	7719,61
576,61	7850,27
576,80	7916,42
577,00	8081,65
577,19	8141,70
577,39	8408,88
577,59	8512,26
577,78	8615,35
577,98	8870,53
578,18	9018,56
578,37	9187,43
578,57	9389,90
578,76	9551,44
578,96	9673,50
579,16	9879,48
579,35	10215,31
579,55	10292,15
579,74	10536,96
579,94	10769,61
580,14	10997,67
580,33	11294,75
580,53	11579,46
580,72	11778,97
580,92	12136,59
581,12	12449,23
581,31	12838,06
581,51	13255,40
581,70	13582,33
581,90	14060,41
582,10	14451,82
582,29	15020,21
582,49	15495,18
582,68	16241,62
582,88	16983,23
583,07	17696,33
583,27	18760,83
583,47	20178,10
583,66	21806,07
583,86	23404,72
584,05	25630,04
584,25	27647,86
584,44	29644,22
584,64	31176,47
584,84	33084,81
585,03	34140,29
585,23	35302,64
585,42	36924,63
585,62	38569,31
585,81	41035,85
586,01	43644,47
586,20	47231,93
586,40	51367,56
586,60	56319,43
586,79	64021,02
586,99	64019,83
587,18	64026,22
587,38	64085,73
587,57	64081,23
587,77	64034,86
587,96	63979,94
588,16	64009,35
588,35	64005,41
588,55	63959,54
588,75	63954,13
588,94	63982,15
589,14	64027,86
589,33	64030,11
589,53	63984,24
589,72	64038,75
589,92	64047,03
590,11	64011,43
590,31	63988,70
590,50	63973,18
590,70	63984,73
590,89	63991,36
591,09	64020,20
591,28	63971,87
591,48	64059,97
591,67	63974,82
591,87	64066,28
592,06	64030,48
592,26	64058,17
592,45	64015,20
592,65	63997,75
592,84	64072,59
593,04	64059,23
593,23	64043,63
593,43	64075,54
593,62	64018,32
593,82	64009,30
594,01	64070,70
594,21	64014,59
594,40	64041,09
594,60	64087,74
594,79	64032,73
594,99	64024,91
595,18	64080,98
595,38	64012,54
595,57	64029,46
595,77	64011,64
595,96	63996,16
596,16	64026,30
596,35	64021,18
596,55	64016,60
596,74	64012,34
596,94	64050,35
597,13	64010,29
597,33	64060,87
597,52	64025,20
597,72	64056,49
597,91	63957,41
598,11	64055,51
598,30	64039,29
598,50	64029,01
598,69	64062,51
598,88	64045,23
599,08	64035,23
599,27	64034,54
599,47	64074,72
599,66	64012,54
599,86	64029,01
600,05	64033,43
600,25	64020,61
600,44	64010,94
600,64	63989,81
600,83	64028,56
601,02	63987,47
601,22	64029,70
601,41	64005,50
601,61	64040,64
601,80	64017,78
602,00	64034,17
602,19	64040,35
602,38	64044,28
602,58	64055,67
602,77	64054,32
602,97	64087,29
603,16	64039,53
603,36	64030,40
603,55	64024,99
603,74	64052,43
603,94	64057,23
604,13	63982,76
604,33	64034,49
604,52	64069,43
604,72	64044,78
604,91	64048,58
605,10	64068,98
605,30	64041,95
605,49	63982,03
605,69	64001,07
605,88	64033,72
606,07	64004,80
606,27	63974,28
606,46	64027,70
606,66	64049,03
606,85	64076,76
607,04	64050,88
607,24	64049,44
607,43	64005,21
607,63	64061,81
607,82	64030,32
608,01	64044,32
608,21	64066,69
608,40	64015,73
608,60	64032,41
608,79	64035,64
608,98	64039,04
609,18	64004,23
609,37	63976,86
609,57	64023,97
609,76	63994,19
609,95	64041,74
610,15	64008,08
610,34	64009,14
610,53	64076,23
610,73	64036,91
610,92	64042,40
611,11	64051,78
611,31	64023,76
611,50	64051,53
611,70	63996,98
611,89	64039,04
612,08	64009,02
612,28	64036,91
612,47	63991,86
612,66	64044,32
612,86	63953,39
613,05	64003,53
613,24	63989,89
613,44	64014,71
613,63	64034,21
613,82	63994,76
614,02	64020,36
614,21	64040,80
614,41	64051,33
614,60	63983,62
614,79	64042,52
614,99	63991,04
615,18	64046,99
615,37	64008,16
615,57	64038,75
615,76	64051,49
615,95	64045,23
616,15	64047,15
616,34	63954,05
616,53	63977,93
616,73	64030,77
616,92	64022,98
617,11	64040,56
617,30	64023,19
617,50	64035,68
617,69	63968,80
617,88	63978,01
618,08	63973,46
618,27	63996,07
618,46	64037,73
618,66	64043,05
618,85	64058,78
619,04	64013,77
619,24	63958,51
619,43	63999,56
619,62	64043,26
619,82	64037,73
620,01	64049,94
620,20	64076,35
620,39	64044,69
620,59	64007,54
620,78	64004,92
620,97	63993,82
621,17	64007,30
621,36	64028,15
621,55	64040,19
621,74	64029,78
621,94	64094,75
622,13	63970,76
622,32	64038,02
622,52	64057,84
622,71	61068,50
622,90	63974,04
623,09	3154,94
623,29	64050,47
623,48	2695,13
623,67	56935,87
623,86	2607,35
624,06	2584,00
624,25	2505,44
624,44	2500,98
624,64	2457,07
624,83	2422,50
625,02	2363,27
625,21	2334,56
625,41	2350,54
625,60	2318,26
625,79	2260,79
625,98	2270,75
626,18	2284,96
626,37	2235,89
626,56	2189,61
626,75	2217,21
626,95	2169,78
627,14	2170,15
627,33	2144,14
627,52	2140,62
627,72	2121,16
627,91	2097,78
628,10	2106,01
628,29	2089,83
628,49	2090,12
628,68	2063,82
628,87	2092,00
629,06	2117,35
629,25	2080,00
629,45	2079,38
629,64	2088,44
629,83	2110,27
630,02	2101,58
630,22	2074,76
630,41	2068,41
630,60	2062,80
630,79	2013,44
630,98	2005,86
631,18	1992,14
631,37	1974,41
631,56	1963,18
631,75	1944,96
631,94	1930,17
632,14	1929,06
632,33	1879,34
632,52	1887,49
632,71	1875,57
632,90	1851,86
633,10	1851,45
633,29	1817,86
633,48	1822,57
633,67	1841,90
633,86	1817,86
634,06	1827,73
634,25	1795,86
634,44	1813,11
634,63	1775,79
634,82	1793,37
635,02	1760,76
635,21	1786,53
635,40	1758,92
635,59	1740,65
635,78	1753,96
635,97	1747,16
636,17	1730,90
636,36	1746,47
636,55	1712,72
636,74	1726,89
636,93	1698,13
637,12	1720,29
637,32	1722,26
637,51	1698,46
637,70	1711,32
637,89	1723,94
638,08	1730,16
638,27	1699,24
638,47	1686,75
638,66	1674,46
638,85	1643,90
639,04	1636,53
639,23	1613,84
639,42	1605,85
639,62	1589,31
639,81	1576,36
640,00	1566,74
640,19	1558,01
640,38	1604,87
640,57	1642,76
640,76	1678,52
640,95	1729,88
641,15	1744,34
641,34	1785,79
641,53	1758,06
641,72	1736,43
641,91	1711,69
642,10	1674,38
642,29	1640,96
642,49	1614,33
642,68	1595,53
642,87	1564,98
643,06	1534,13
643,25	1495,84
643,44	1454,18
643,63	1451,27
643,82	1428,46
644,01	1413,71
644,21	1406,38
644,40	1387,58
644,59	1394,46
644,78	1385,61
644,97	1382,71
645,16	1363,09
645,35	1378,86
645,54	1374,64
645,73	1359,61
645,92	1377,63
646,12	1341,13
646,31	1325,61
646,50	1331,67
646,69	1339,58
646,88	1332,24
647,07	1330,85
647,26	1335,44
647,45	1314,71
647,64	1305,99
647,83	1293,46
648,02	1298,33
648,22	1294,77
648,41	1289,11
648,60	1263,02
648,79	1281,50
648,98	1297,84
649,17	1284,90
649,36	1271,99
649,55	1269,09
649,74	1240,91
649,93	1250,28
650,12	1236,07
650,31	1225,87
650,50	1223,66
650,69	1227,14
650,88	1216,90
651,08	1201,58
651,27	1207,61
651,46	1189,83
651,65	1181,02
651,84	1177,95
652,03	1170,21
652,22	1150,34
652,41	1156,73
652,60	1148,13
652,79	1142,52
652,98	1136,62
653,17	1135,72
653,36	1153,74
653,55	1121,30
653,74	1121,02
653,93	1135,15
654,12	1117,49
654,31	1113,03
654,50	1118,07
654,69	1083,50
654,88	1088,70
655,07	1075,68
655,26	1072,19
655,45	1104,47
655,64	1068,26
655,83	1088,13
656,02	1076,04
656,21	1079,16
656,40	1070,47
656,59	1061,34
656,78	1036,89
656,97	1018,21
657,17	1021,77
657,36	1031,77
657,55	1011,49
657,74	1010,39
657,93	1004,49
658,12	989,82
658,31	975,41
658,50	968,28
658,69	963,49
658,87	970,37
659,06	959,23
659,25	983,60
659,44	979,67
659,63	979,38
659,82	994,21
660,01	968,24
660,20	971,31
660,39	957,10
660,58	967,17
660,77	958,08
660,96	951,94
661,15	926,95
661,34	935,47
661,53	920,68
661,72	906,06
661,91	912,04
662,10	895,90
662,29	881,61
662,48	889,76
662,67	891,32
662,86	862,19
663,05	863,38
663,24	864,78
663,43	854,66
663,62	841,43
663,81	850,44
664,00	842,37
664,19	837,21
664,38	850,32
664,57	838,68
664,76	836,27
664,94	828,49
665,13	835,98
665,32	830,90
665,51	839,42
665,70	826,68
665,89	839,26
666,08	829,35
666,27	840,69
666,46	875,71
666,65	901,35
666,84	944,73
667,03	970,57
667,22	983,97
667,41	1009,89
667,60	1016,53
667,78	993,06
667,97	961,19
668,16	934,86
668,35	914,21
668,54	875,59
668,73	867,40
668,92	842,25
669,11	815,99
669,30	785,64
669,49	764,47
669,68	743,17
669,86	742,43
670,05	740,59
670,24	720,23
670,43	714,82
670,62	710,97
670,81	701,43
671,00	688,65
671,19	690,04
671,38	682,92
671,57	676,65
671,75	684,10
671,94	667,39
672,13	664,69
672,32	657,23
672,51	646,30
672,70	652,81
672,89	634,87
673,08	623,57
673,26	614,39
673,45	630,57
673,64	604,36
673,83	617,42
674,02	687,99
674,21	749,07
674,40	827,99
674,59	902,83
674,77	977,17
674,96	996,87
675,15	1032,79
675,34	1004,53
675,53	956,11
675,72	905,16
675,91	892,46
676,09	872,80
676,28	825,00
676,47	783,27
676,66	741,20
676,85	711,14
677,04	666,98
677,22	618,73
677,41	580,84
677,60	562,86
677,79	549,55
677,98	545,87
678,17	531,08
678,36	533,37
678,54	512,32
678,73	509,21
678,92	515,84
679,11	507,77
679,30	494,30
679,48	505,68
679,67	493,52
679,86	497,08
680,05	497,78
680,24	494,46
680,43	483,61
680,61	488,93
680,80	476,36
680,99	476,81
681,18	489,18
681,37	478,36
681,55	472,34
681,74	482,75
681,93	474,60
682,12	471,81
682,31	473,00
682,49	471,52
682,68	446,09
682,87	455,84
683,06	456,53
683,25	449,69
683,43	447,56
683,62	447,65
683,81	430,40
684,00	459,61
684,19	450,59
684,37	444,65
684,56	436,22
684,75	449,04
684,94	436,87
685,12	423,32
685,31	421,59
685,50	441,50
685,69	459,32
685,88	503,88
686,06	566,06
686,25	631,92
686,44	701,22
686,63	740,83
686,81	778,39
687,00	776,71
687,19	772,21
687,38	761,15
687,56	744,64
687,75	697,78
687,94	696,51
688,13	672,63
688,31	641,55
688,50	611,48
688,69	578,63
688,88	547,05
689,06	532,19
689,25	491,59
689,44	489,92
689,63	469,35
689,81	468,17
690,00	458,13
690,19	440,85
690,38	444,37
690,56	431,47
690,75	414,06
690,94	401,48
691,13	405,62
691,31	418,07
691,50	407,22
691,69	406,69
691,87	430,85
692,06	409,23
692,25	447,07
692,44	442,73
692,62	482,21
692,81	510,48
693,00	538,86
693,18	576,54
693,37	588,05
693,56	573,43
693,75	607,67
693,93	605,17
694,12	597,84
694,31	603,29
694,49	620,99
694,68	683,04
694,87	990,23
695,05	2115,22
695,24	4605,84
695,43	8844,23
695,62	13670,76
695,80	18675,10
695,99	23498,80
696,18	26540,94
696,36	27705,86
696,55	26228,75
696,74	24240,78
696,92	22082,80
697,11	19736,07
697,30	17816,92
697,48	15931,89
697,67	13925,53
697,86	11610,51
698,04	9242,03
698,23	6862,25
698,42	4838,16
698,60	3264,75
698,79	2211,27
698,98	1542,20
699,16	1105,12
699,35	843,60
699,54	690,00
699,72	606,28
699,91	533,86
700,10	505,68
700,28	471,03
700,47	450,39
700,66	436,91
700,84	427,08
701,03	401,24
701,21	399,27
701,40	418,77
701,59	407,75
701,77	444,49
701,96	512,81
702,15	577,16
702,33	636,80
702,52	688,85
702,71	727,77
702,89	750,83
703,08	707,12
703,26	714,95
703,45	693,77
703,64	649,49
703,82	621,60
704,01	607,35
704,20	578,96
704,38	553,73
704,57	526,04
704,75	521,49
704,94	581,79
705,13	917,86
705,31	1930,37
705,50	3915,59
705,68	6857,91
705,87	9871,99
706,06	12938,12
706,24	15654,10
706,43	17038,32
706,61	17402,25
706,80	16250,14
706,99	15262,00
707,17	13891,62
707,36	12637,16
707,54	11459,49
707,73	10216,13
707,92	8651,81
708,10	6999,59
708,29	5439,90
708,47	4125,80
708,66	2966,81
708,84	2085,82
709,03	1493,71
709,22	1059,13
709,40	812,47
709,59	655,35
709,77	570,89
709,96	529,36
710,14	485,90
710,33	469,97
710,52	469,84
710,70	437,77
710,89	437,69
711,07	421,59
711,26	427,37
711,44	406,28
711,63	424,09
711,81	419,46
712,00	418,36
712,19	404,76
712,37	414,96
712,56	410,90
712,74	399,64
712,93	392,64
713,11	433,19
713,30	527,23
713,48	728,67
713,67	1036,27
713,85	1320,78
714,04	1651,65
714,22	1949,13
714,41	2099,00
714,59	2118,21
714,78	2054,24
714,97	1932,46
715,15	1775,26
715,34	1643,86
715,52	1507,35
715,71	1368,25
715,89	1173,08
716,08	1034,88
716,26	884,89
716,45	746,73
716,63	659,94
716,82	544,43
717,00	478,49
717,19	422,41
717,37	409,55
717,56	393,74
717,74	395,26
717,93	363,56
718,11	367,36
718,30	345,21
718,48	357,37
718,67	353,97
718,85	345,78
719,04	350,74
719,22	346,52
719,41	352,99
719,59	368,18
719,78	386,57
719,96	397,10
720,15	406,32
720,33	427,49
720,52	412,87
720,70	419,46
720,88	403,98
721,07	408,53
721,25	390,10
721,44	392,02
721,62	386,78
721,81	367,16
721,99	388,75
722,18	363,23
722,36	374,78
722,55	352,00
722,73	360,57
722,92	340,25
723,10	345,00
723,28	342,34
723,47	345,66
723,65	340,29
723,84	340,95
724,02	339,72
724,21	331,93
724,39	343,28
724,58	351,60
724,76	349,34
724,94	340,74
725,13	353,64
725,31	371,01
725,50	382,60
725,68	491,14
725,87	774,99
726,05	1352,56
726,23	2258,13
726,42	3311,28
726,60	4381,18
726,79	5309,69
726,97	5947,30
727,16	6201,90
727,34	6016,52
727,52	5496,91
727,71	5002,70
727,89	4379,05
728,08	3875,94
728,26	3334,87
728,44	2764,80
728,63	2326,70
728,81	1936,48
729,00	1641,41
729,18	1360,67
729,36	1059,58
729,55	846,10
729,73	694,26
729,92	578,84
730,10	496,35
730,28	465,95
730,47	457,35
730,65	446,42
730,84	458,70
731,02	446,99
731,20	471,57
731,39	441,38
731,57	424,87
731,75	446,78
731,94	415,25
732,12	403,61
732,31	397,59
732,49	407,63
732,67	379,37
732,86	387,93
733,04	374,33
733,22	380,27
733,41	375,93
733,59	374,00
733,78	395,67
733,96	395,83
734,14	414,80
734,33	444,00
734,51	501,47
734,69	503,27
734,88	553,16
735,06	571,67
735,24	571,83
735,43	565,44
735,61	572,65
735,79	589,98
735,98	616,19
736,16	672,88
736,34	754,96
736,53	869,65
736,71	1165,95
736,89	2068,41
737,08	4089,42
737,26	7612,14
737,44	12401,31
737,63	17071,13
737,81	22427,02
737,99	27150,37
738,18	29142,10
738,36	29137,93
738,54	26582,92
738,73	23934,16
738,91	20534,16
739,09	17401,59
739,28	14459,15
739,46	12164,57
739,64	10301,28
739,82	8685,03
740,01	7369,90
740,19	6252,20
740,37	4966,77
740,56	3752,17
740,74	2795,31
740,92	2003,12
741,11	1437,96
741,29	1097,10
741,47	865,47
741,65	725,39
741,84	633,97
742,02	577,20
742,20	554,18
742,39	541,32
742,57	530,92
742,75	553,65
742,93	528,13
743,12	541,48
743,30	559,05
743,48	526,21
743,67	516,33
743,85	518,63
744,03	505,07
744,21	483,85
744,40	455,26
744,58	464,40
744,76	437,69
744,94	451,37
745,13	424,09
745,31	414,96
745,49	418,48
745,67	427,70
745,86	423,64
746,04	447,56
746,22	442,89
746,40	456,04
746,59	459,20
746,77	487,99
746,95	497,04
747,13	500,52
747,32	499,05
747,50	509,17
747,68	535,18
747,86	530,96
748,05	551,19
748,23	568,64
748,41	601,00
748,59	668,54
748,77	951,65
748,96	1820,60
749,14	3582,59
749,32	6509,80
749,50	10110,25
749,69	14119,80
749,87	18354,26
750,05	22153,94
750,23	25018,03
750,41	27344,40
750,60	28921,78
750,78	30205,00
750,96	31595,94
751,14	32196,61
751,32	31818,27
751,51	29651,31
751,69	26057,66
751,87	22031,68
752,05	18737,60
752,23	16023,31
752,42	13684,08
752,60	11727,77
752,78	9817,80
752,96	8351,82
753,14	7055,21
753,33	5976,96
753,51	4879,12
753,69	3859,52
753,87	2867,20
754,05	2119,61
754,23	1556,42
754,42	1198,88
754,60	952,39
754,78	786,34
754,96	672,47
755,14	613,69
755,32	585,23
755,51	558,32
755,69	543,82
755,87	533,70
756,05	509,86
756,23	494,30
756,41	499,66
756,60	505,52
756,78	510,07
756,96	495,08
757,14	486,02
757,32	505,64
757,50	514,82
757,68	520,68
757,87	511,01
758,05	511,21
758,23	530,10
758,41	517,81
758,59	516,17
758,77	536,81
758,95	537,71
759,14	537,06
759,32	540,38
759,50	563,36
759,68	570,73
759,86	611,11
760,04	608,04
760,22	615,17
760,40	633,76
760,59	665,79
760,77	679,02
760,95	736,00
761,13	770,00
761,31	804,81
761,49	905,65
761,67	1101,11
761,85	1934,88
762,03	4869,62
762,22	11878,34
762,40	24392,86
762,58	43059,65
762,76	62049,68
762,94	64035,64
763,12	64026,59
763,30	63992,96
763,48	64036,54
763,66	64052,07
763,84	64059,27
764,02	64051,45
764,21	64047,81
764,39	63955,16
764,57	48459,65
764,75	40042,75
764,93	35695,36
765,11	32179,86
765,29	29807,28
765,47	27478,99
765,65	25250,23
765,83	22667,16
766,01	20119,45
766,19	17690,80
766,37	15231,40
766,56	12773,26
766,74	10199,13
766,92	8079,11
767,10	6549,53
767,28	5535,09
767,46	4849,96
767,64	4320,31
767,82	3869,02
768,00	3416,42
768,18	3132,16
768,36	2906,19
768,54	2881,37
768,72	3130,16
768,90	3749,54
769,08	4572,42
769,26	5368,01
769,44	6037,04
769,62	6422,63
769,80	6269,20
769,98	5755,28
770,16	4827,43
770,34	4083,40
770,52	3549,95
770,71	3390,70
770,89	3886,43
771,07	5928,21
771,25	9844,46
771,43	16722,69
771,61	24218,54
771,79	30899,75
771,97	36725,16
772,15	39885,26
772,33	39427,08
772,51	35407,00
772,69	29515,94
772,87	24401,14
773,05	20447,78
773,23	18190,92
773,41	16298,23
773,59	14809,44
773,77	13299,59
773,95	11959,20
774,13	10554,29
774,31	9450,23
774,49	8140,63
774,67	6767,39
774,85	5266,23
775,03	3892,16
775,21	2837,26
775,39	2035,52
775,57	1463,36
775,75	1113,77
775,93	885,25
776,10	698,77
776,28	609,60
776,46	564,38
776,64	517,03
776,82	491,02
777,00	91,09
777,18	441,83
777,36	430,56
777,54	422,91
777,72	409,47
777,90	400,05
778,08	406,28
778,26	383,26
778,44	403,98
778,62	397,67
778,80	392,60
778,98	389,11
779,16	383,75
779,34	387,89
779,52	381,45
779,70	390,06
779,88	396,61
780,05	388,54
780,23	385,92
780,41	392,31
780,59	373,43
780,77	378,59
780,95	394,93
781,13	364,21
781,31	374,41
781,49	368,68
781,67	381,82
781,85	359,91
782,03	359,46
782,21	362,20
782,39	351,51
782,56	334,39
782,74	354,75
782,92	346,76
783,10	360,07
783,28	343,49
783,46	355,32
783,64	341,40
783,82	355,69
784,00	346,11
784,18	352,91
784,35	346,31
784,53	350,04
784,71	344,59
784,89	362,08
785,07	354,99
785,25	367,00
785,43	374,66
785,61	363,76
785,79	378,38
785,96	369,74
786,14	363,84
786,32	361,06
786,50	357,25
786,68	347,99
786,86	357,82
787,04	342,17
787,22	344,22
787,39	338,45
787,57	357,98
787,75	356,39
787,93	349,38
788,11	350,08
788,29	354,46
788,47	360,11
788,65	388,38
788,82	390,63
789,00	379,49
789,18	381,54
789,36	385,76
789,54	369,74
789,72	370,56
789,89	375,19
790,07	372,69
790,25	387,39
790,43	397,92
790,61	417,83
790,79	395,09
790,96	394,56
791,14	403,94
791,32	400,79
791,50	401,61
791,68	424,79
791,86	405,70
792,03	410,41
792,21	408,32
792,39	424,99
792,57	425,04
792,75	433,92
792,93	475,99
793,10	566,02
793,28	883,29
793,46	1871,15
793,64	3783,83
793,82	6591,67
793,99	9844,42
794,17	12611,39
794,35	15180,53
794,53	16729,08
794,71	17204,17
794,88	16188,37
795,06	14236,58
795,24	12117,34
795,42	10916,16
795,60	9871,17
795,77	9294,34
795,95	8629,20
796,13	8171,23
796,31	7486,88
796,49	6887,03
796,66	6178,19
796,84	5655,67
797,02	5027,11
797,20	4398,30
797,37	3663,32
797,55	2894,15
797,73	2217,99
797,91	1662,91
798,08	1259,62
798,26	998,14
798,44	817,02
798,62	716,75
798,80	696,51
798,97	745,83
799,15	1008,09
799,33	1766,25
799,51	3029,07
799,68	4672,73
799,86	6554,32
800,04	8517,26
800,22	11212,63
800,39	14415,41
800,57	17256,76
800,75	19421,30
800,93	20855,00
801,10	22301,44
801,28	22637,80
801,46	21821,19
801,63	20214,23
801,81	18106,09
801,99	16133,08
802,17	14902,04
802,34	13521,10
802,52	12657,96
802,70	11745,76
802,88	10877,09
803,05	9794,90
803,23	8706,57
803,41	7604,48
803,58	6647,09
803,76	5774,70
803,94	4881,42
804,12	4041,13
804,29	3134,13
804,47	2396,04
804,65	1811,02
804,82	1356,00
805,00	1065,84
805,18	869,32
805,35	739,28
805,53	645,11
805,71	604,56
805,89	562,37
806,06	552,17
806,24	540,38
806,42	533,66
806,59	517,32
806,77	522,93
806,95	529,20
807,12	538,00
807,30	557,58
807,48	559,05
807,65	554,67
807,83	595,30
808,01	616,68
808,18	652,40
808,36	678,98
808,54	732,97
808,71	938,83
808,89	1495,96
809,07	2800,72
809,24	5023,42
809,42	7994,78
809,60	11284,10
809,77	14445,06
809,95	18041,29
810,13	22298,49
810,30	27553,17
810,48	33364,24
810,66	40032,51
810,83	46077,13
811,01	52040,85
811,18	56567,68
811,36	60406,72
811,54	60423,72
811,71	57486,61
811,89	52601,75
812,07	47708,21
812,24	43884,61
812,42	40946,43
812,59	38156,57
812,77	35773,55
812,95	33452,63
813,12	30801,61
813,30	27691,04
813,48	24832,85
813,65	21997,03
813,83	19528,12
814,00	16935,84
814,18	14307,19
814,36	11528,79
814,53	8878,56
814,71	6481,37
814,88	4648,48
815,06	3332,09
815,24	2457,07
815,41	1866,52
815,59	1500,34
815,76	1251,23
815,94	1136,54
816,12	1044,67
816,29	1071,05
816,47	1137,77
816,64	1431,78
816,82	2255,31
817,00	4246,91
817,17	7650,31
817,35	12519,23
817,52	17819,01
817,70	23263,94
817,87	28372,07
818,05	34269,89
818,23	39696,88
818,40	45819,53
818,58	50636,31
818,75	56545,77
818,93	61191,05
819,10	64013,81
819,28	64039,98
819,46	64010,70
819,63	64044,37
819,81	61663,97
819,98	56605,82
820,16	51820,74
820,33	48159,50
820,51	45143,21
820,68	41751,57
820,86	39085,32
821,03	35602,91
821,21	31784,35
821,39	28178,37
821,56	24980,55
821,74	21590,55
821,91	19131,96
822,09	16476,65
822,26	13859,30
822,44	11049,94
822,61	8522,83
822,79	6279,93
822,96	4548,54
823,14	3282,73
823,31	2362,58
823,49	1798,89
823,66	1389,92
823,84	1124,50
824,01	958,04
824,19	836,60
824,36	790,97
824,54	743,70
824,71	782,49
824,89	918,96
825,06	1274,41
825,24	1962,24
825,41	2919,95
825,59	4140,67
825,76	5491,30
825,94	6682,81
826,11	7893,20
826,29	8846,65
826,46	9228,47
826,64	9193,74
826,81	8655,21
826,99	8106,88
827,16	7672,22
827,34	7194,39
827,51	6828,62
827,69	6434,88
827,86	6151,40
828,04	5796,08
828,21	5443,75
828,39	5010,03
828,56	4570,53
828,74	4146,89
828,91	3790,13
829,09	3425,47
829,26	3008,30
829,43	2521,54
829,61	2019,62
829,78	1572,80
829,96	1202,28
830,13	913,44
830,31	733,95
830,48	608,94
830,66	522,31
830,83	455,55
831,01	409,27
831,18	384,53
831,35	382,97
831,53	364,70
831,70	369,17
831,88	352,91
832,05	345,82
832,23	336,40
832,40	333,00
832,57	331,16
832,75	309,49
832,92	315,67
833,10	323,17
833,27	324,07
833,45	310,59
833,62	315,47
833,79	317,44
833,97	303,75
834,14	290,36
834,32	307,40
834,49	298,76
834,66	306,54
834,84	294,50
835,01	297,73
835,19	302,61
835,36	294,95
835,53	291,55
835,71	305,97
835,88	292,86
836,06	291,92
836,23	286,88
836,40	275,66
836,58	275,82
836,75	277,13
836,93	292,94
837,10	296,14
837,27	286,18
837,45	301,22
837,62	302,03
837,79	310,10
837,97	303,63
838,14	327,10
838,32	327,84
838,49	342,46
838,66	379,86
838,84	407,30
839,01	461,45
839,18	591,37
839,36	863,01
839,53	1360,92
839,70	2177,56
839,88	3310,13
840,05	4618,21
840,23	5968,23
840,40	7432,86
840,57	8745,28
840,75	10015,92
840,92	10880,57
841,09	11637,99
841,27	12285,44
841,44	13073,04
841,61	14311,37
841,79	15667,98
841,96	16987,45
842,13	18447,08
842,31	19801,52
842,48	20558,58
842,65	20974,03
842,83	20547,88
843,00	19630,56
843,17	18843,20
843,35	17731,60
843,52	16925,19
843,69	15737,17
843,86	14908,02
844,04	13524,13
844,21	12331,68
844,38	11266,16
844,56	10056,88
844,73	8829,04
844,90	7971,76
845,08	7109,65
845,25	6397,28
845,42	5557,94
845,60	4708,81
845,77	3767,03
845,94	2921,76
846,11	2207,79
846,29	1624,78
846,46	1199,82
846,63	909,54
846,81	709,91
846,98	569,34
847,15	491,64
847,32	429,91
847,50	383,09
847,67	343,73
847,84	334,88
848,01	327,39
848,19	310,10
848,36	298,14
848,53	287,58
848,71	288,68
848,88	288,68
849,05	276,48
849,22	266,56
849,40	257,35
849,57	267,46
849,74	277,17
849,91	271,31
850,09	267,55
850,26	283,28
850,43	304,12
850,60	350,28
850,78	441,99
850,95	591,78
851,12	847,33
851,29	1166,52
851,47	1562,27
851,64	1968,92
851,81	2437,16
851,98	2855,03
852,15	3227,11
852,33	3502,40
852,50	3629,90
852,67	3681,18
852,84	3673,03
853,02	3567,89
853,19	3472,66
853,36	3361,00
853,53	3252,75
853,70	3117,62
853,88	2984,01
854,05	2816,33
854,22	2652,00
854,39	2462,56
854,56	2275,17
854,74	2119,40
854,91	1963,51
855,08	1782,35
855,25	1592,05
855,42	1363,33
855,60	1135,52
855,77	894,31
855,94	722,03
856,11	572,69
856,28	447,19
856,46	376,38
856,63	317,35
856,80	282,17
856,97	248,75
857,14	230,23
857,31	225,89
857,49	239,98
857,66	211,47
857,83	212,42
858,00	197,38
858,17	191,28
858,34	213,48
858,52	196,07
858,69	190,13
858,86	191,98
859,03	184,60
859,20	191,89
859,37	191,65
859,55	190,71
859,72	187,27
859,89	191,24
860,06	197,71
860,23	190,01
860,40	174,12
860,57	190,01
860,75	176,82
860,92	181,16
861,09	172,77
861,26	182,06
861,43	196,56
861,60	179,03
861,77	178,58
861,95	191,40
862,12	193,70
862,29	179,69
862,46	183,70
862,63	181,61
862,80	173,42
862,97	174,49
863,14	175,88
863,31	186,00
863,49	172,07
863,66	170,02
863,83	173,67
864,00	158,23
864,17	171,50
864,34	173,01
864,51	151,02
864,68	149,62
864,85	159,50
865,02	156,18
865,20	168,34
865,37	166,17
865,54	191,24
865,71	207,99
865,88	238,06
866,05	293,88
866,22	342,42
866,39	418,28
866,56	476,36
866,73	552,34
866,90	634,95
867,07	690,21
867,25	744,72
867,42	743,66
867,59	739,15
867,76	748,45
867,93	754,35
868,10	749,43
868,27	746,65
868,44	723,18
868,61	697,29
868,78	682,18
868,95	663,54
869,12	604,11
869,29	575,36
869,46	537,06
869,63	520,31
869,80	494,99
869,97	447,89
870,14	403,20
870,32	369,95
870,49	324,77
870,66	279,92
870,83	241,17
871,00	213,85
871,17	178,66
871,34	183,87
871,51	157,65
871,68	155,60
871,85	173,42
872,02	161,75
872,19	155,85
872,36	141,19
872,53	147,58
872,70	159,25
872,87	147,86
873,04	154,58
873,21	156,18
873,38	148,93
873,55	146,02
873,72	155,65
873,89	144,30
874,06	154,62
874,23	147,78
874,40	147,37
874,57	147,09
874,74	149,99
874,91	137,83
875,08	149,09
875,25	147,04
875,42	156,22
875,59	153,19
875,76	150,53
875,93	140,33
876,10	146,02
876,27	151,51
876,44	153,15
876,61	141,97
876,78	143,15
876,95	147,04
877,12	142,05
877,29	145,77
877,46	132,83
877,62	137,83
877,79	127,71
877,96	155,40
878,13	152,66
878,30	146,47
878,47	133,12
878,64	159,78
878,81	132,67
878,98	143,03
879,15	130,66
879,32	143,19
879,49	142,95
879,66	149,01
879,83	153,52
880,00	147,70
880,17	142,66
880,34	124,89
880,51	140,29
880,67	123,98
880,84	134,39
881,01	136,97
881,18	133,57
881,35	124,11
881,52	127,55
881,69	133,98
881,86	127,67
882,03	142,78
882,20	135,66
882,37	131,60
882,54	133,81
882,70	132,63
882,87	140,00
883,04	127,92
883,21	120,42
883,38	134,47
883,55	132,09
883,72	134,43
883,89	130,82
884,06	130,91
884,23	131,19
884,39	132,42
884,56	145,41
884,73	123,82
884,90	123,78
885,07	141,35
885,24	136,80
885,41	125,70
885,58	115,55
885,74	132,46
885,91	139,92
886,08	127,42
886,25	131,68
886,42	129,76
886,59	140,29
886,76	150,08
886,93	128,33
887,09	131,73
887,26	137,38
887,43	144,55
887,60	134,63
887,77	142,91
887,94	124,27
888,10	137,34
888,27	131,64
888,44	136,60
888,61	125,58
888,78	127,10
888,95	122,92
889,12	124,43
889,28	136,03
889,45	133,24
889,62	133,24
889,79	128,37
889,96	134,10
890,13	133,49
890,29	122,63
890,46	118,50
890,63	123,98
890,80	131,11
890,97	117,39
891,13	129,06
891,30	128,33
891,47	135,86
891,64	126,56
891,81	119,85
891,98	125,38
892,14	129,47
892,31	120,63
892,48	123,62
892,65	122,43
892,82	123,90
892,98	119,40
893,15	107,81
893,32	119,52
>>>>>End Processed Spectral Data<<<<<
