SpectraSuite Datei
++++++++++++++++++++++++++++++++++++
Datum: Tue Dec 13 14:35:25 CET 2016
Benutzer: Admin
Dark-Spektrum vorhanden: Ja
Referenz-Spektrum vorhanden: Ja
Zahl der probierten Teilspektren: 1
Spektrometer: USB4F05832
Integrationszeit (usec): 280000 (USB4F05832)
Spektren Durchschnitt berechnet: 15 (USB4F05832)
Boxcar Glättung: 0 (USB4F05832)
Dunkelstromkorrektur: Nein (USB4F05832)
Puls/Lampe aktiviert: Nein (USB4F05832)
Correct for Detector Non-linearity: Nein (USB4F05832)
Streulichtkorrektur: Nein (USB4F05832)
Anzahl Pixel in verarbeitetem Spektrum: 3648
>>>>>Begin Processed Spectral Data<<<<<
177,54	24,99
177,75	24,99
177,97	24,99
178,19	-12,97
178,41	37,82
178,63	329,04
178,85	87,24
179,07	186,77
179,29	238,25
179,51	83,83
179,73	243,44
179,95	172,17
180,17	186,64
180,39	329,45
180,61	156,74
180,83	294,22
181,05	172,58
181,27	254,08
181,49	231,56
181,71	281,80
181,92	401,13
182,14	213,81
182,36	105,54
182,58	318,80
182,80	279,48
183,02	415,06
183,24	309,24
183,46	383,24
183,68	283,17
183,90	314,16
184,12	139,94
184,34	368,09
184,56	274,56
184,78	191,14
185,00	212,72
185,21	258,59
185,43	198,79
185,65	283,03
185,87	319,62
186,09	462,02
186,31	257,09
186,53	334,50
186,75	274,56
186,97	317,16
187,19	370,96
187,41	158,79
187,63	277,98
187,84	144,18
188,06	294,22
188,28	269,24
188,50	327,95
188,72	329,31
188,94	372,32
189,16	213,53
189,38	242,75
189,60	277,02
189,82	233,60
190,03	281,25
190,25	237,29
190,47	287,26
190,69	234,56
190,91	202,34
191,13	241,11
191,35	304,74
191,57	239,48
191,79	407,14
192,01	259,41
192,22	364,27
192,44	293,13
192,66	302,14
192,88	269,92
193,10	310,20
193,32	203,57
193,54	332,04
193,76	406,18
193,98	270,20
194,19	284,26
194,41	250,26
194,63	180,36
194,85	270,33
195,07	276,61
195,29	202,75
195,51	341,87
195,73	245,07
195,94	326,45
196,16	364,81
196,38	343,51
196,60	231,01
196,82	260,91
197,04	245,48
197,26	180,49
197,48	209,44
197,69	266,10
197,91	293,54
198,13	188,55
198,35	269,38
198,57	205,48
198,79	368,22
199,01	355,66
199,22	244,25
199,44	265,01
199,66	239,20
199,88	312,11
200,10	343,24
200,32	348,29
200,54	296,00
200,75	388,84
200,97	223,37
201,19	406,86
201,41	293,82
201,63	244,80
201,85	168,34
202,06	308,01
202,28	258,73
202,50	323,03
202,72	197,15
202,94	209,44
203,16	229,65
203,38	292,86
203,59	230,06
203,81	373,41
204,03	197,42
204,25	268,56
204,47	437,31
204,69	296,68
204,90	255,45
205,12	327,67
205,34	250,81
205,56	278,80
205,78	296,82
206,00	391,84
206,21	342,83
206,43	250,94
206,65	348,15
206,87	214,22
207,09	315,80
207,30	217,36
207,52	353,89
207,74	360,44
207,96	273,88
208,18	218,59
208,40	248,35
208,61	307,88
208,83	320,98
209,05	140,22
209,27	219,68
209,49	329,59
209,70	315,66
209,92	327,67
210,14	251,22
210,36	296,68
210,58	324,81
210,79	265,69
211,01	168,48
211,23	361,26
211,45	353,62
211,67	306,79
211,88	237,29
212,10	342,42
212,32	258,73
212,54	272,24
212,76	274,29
212,97	179,27
213,19	209,85
213,41	401,95
213,63	194,69
213,85	283,17
214,06	227,60
214,28	320,71
214,50	232,79
214,72	260,64
214,94	285,08
215,15	295,73
215,37	258,73
215,59	252,86
215,81	406,86
216,02	371,91
216,24	337,91
216,46	208,76
216,68	284,94
216,90	235,24
217,11	385,97
217,33	238,66
217,55	334,91
217,77	293,54
217,98	322,35
218,20	345,29
218,42	389,52
218,64	288,49
218,85	392,94
219,07	299,69
219,29	362,35
219,51	341,87
219,73	257,91
219,94	244,80
220,16	352,25
220,38	308,56
220,60	198,38
220,81	213,67
221,03	188,28
221,25	306,65
221,47	190,73
221,68	271,42
221,90	321,53
222,12	289,31
222,34	243,98
222,55	321,94
222,77	305,01
222,99	278,25
223,21	259,82
223,42	345,97
223,64	277,57
223,86	278,39
224,08	287,40
224,29	386,93
224,51	288,35
224,73	288,35
224,94	294,91
225,16	181,86
225,38	274,29
225,60	328,77
225,81	231,42
226,03	254,36
226,25	222,96
226,47	318,66
226,68	306,79
226,90	307,60
227,12	318,94
227,33	308,29
227,55	295,45
227,77	268,56
227,99	409,87
228,20	232,79
228,42	348,56
228,64	320,85
228,86	267,87
229,07	289,17
229,29	225,96
229,51	94,34
229,72	424,48
229,94	326,99
230,16	315,25
230,38	247,94
230,59	320,03
230,81	384,06
231,03	325,90
231,24	280,03
231,46	242,48
231,68	220,36
231,89	263,78
232,11	310,34
232,33	454,24
232,55	271,01
232,76	394,85
232,98	340,37
233,20	227,32
233,41	224,87
233,63	231,97
233,85	347,75
234,06	240,30
234,28	415,33
234,50	271,15
234,71	299,69
234,93	338,73
235,15	286,03
235,37	160,83
235,58	303,78
235,80	238,25
236,02	247,26
236,23	256,68
236,45	293,13
236,67	298,18
236,88	342,97
237,10	306,92
237,32	345,70
237,53	254,22
237,75	271,56
237,97	213,94
238,18	226,23
238,40	303,24
238,62	286,99
238,83	268,15
239,05	271,15
239,27	327,81
239,48	213,26
239,70	230,60
239,92	365,22
240,13	390,07
240,35	250,40
240,57	320,85
240,78	361,40
241,00	209,99
241,22	231,83
241,43	384,47
241,65	227,60
241,87	367,68
242,08	396,21
242,30	204,80
242,52	266,10
242,73	312,79
242,95	238,38
243,16	294,91
243,38	361,94
243,60	352,11
243,81	332,04
244,03	338,32
244,25	261,05
244,46	295,32
244,68	291,90
244,90	279,21
245,11	180,63
245,33	339,83
245,55	326,72
245,76	249,03
245,98	279,48
246,19	405,22
246,41	358,12
246,63	405,50
246,84	313,34
247,06	268,69
247,28	351,02
247,49	406,73
247,71	228,55
247,92	308,29
248,14	312,52
248,36	285,49
248,57	370,27
248,79	408,36
249,01	346,11
249,22	251,22
249,44	272,38
249,65	250,13
249,87	291,90
250,09	303,78
250,30	290,81
250,52	286,31
250,73	320,85
250,95	208,76
251,17	314,29
251,38	204,66
251,60	186,91
251,81	474,45
252,03	428,16
252,25	265,28
252,46	237,70
252,68	320,17
252,89	348,84
253,11	315,39
253,33	333,96
253,54	145,13
253,76	358,67
253,97	345,83
254,19	378,74
254,41	230,06
254,62	333,96
254,84	300,37
255,05	331,09
255,27	437,58
255,49	360,31
255,70	394,44
255,92	281,94
256,13	237,43
256,35	346,79
256,56	330,41
256,78	275,25
257,00	433,49
257,21	239,75
257,43	181,72
257,64	326,31
257,86	359,21
258,08	381,33
258,29	367,00
258,51	311,02
258,72	351,57
258,94	357,17
259,15	343,92
259,37	224,18
259,59	236,88
259,80	437,99
260,02	224,46
260,23	296,27
260,45	283,17
260,66	365,90
260,88	309,93
261,09	249,58
261,31	298,05
261,53	342,97
261,74	451,24
261,96	119,60
262,17	249,31
262,39	340,65
262,60	277,02
262,82	304,87
263,03	220,63
263,25	315,39
263,46	252,86
263,68	351,16
263,90	339,55
264,11	295,59
264,33	316,62
264,54	318,39
264,76	296,82
264,97	382,15
265,19	277,57
265,40	322,90
265,62	274,84
265,83	305,01
266,05	237,29
266,26	267,46
266,48	384,61
266,70	337,91
266,91	234,29
267,13	259,41
267,34	302,96
267,56	393,07
267,77	240,29
267,99	300,64
268,20	468,98
268,42	298,73
268,63	232,79
268,85	441,82
269,06	372,05
269,28	413,28
269,49	317,16
269,71	279,89
269,92	285,76
270,14	195,51
270,35	234,83
270,57	302,01
270,78	242,89
271,00	232,10
271,21	420,24
271,43	242,21
271,64	281,25
271,86	416,15
272,07	211,76
272,29	436,63
272,50	284,26
272,72	393,48
272,93	384,20
273,15	366,72
273,36	414,65
273,58	337,51
273,79	334,09
274,01	308,15
274,22	298,46
274,44	343,92
274,65	319,35
274,87	302,28
275,08	328,49
275,30	284,26
275,51	422,15
275,73	402,63
275,94	300,78
276,16	307,06
276,37	318,39
276,59	353,07
276,80	256,27
277,02	323,03
277,23	327,40
277,45	301,32
277,66	161,24
277,88	394,30
278,09	393,35
278,30	353,75
278,52	198,11
278,73	444,55
278,95	402,90
279,16	401,40
279,38	295,86
279,59	326,45
279,81	255,59
280,02	317,57
280,24	286,31
280,45	347,88
280,67	382,42
280,88	389,39
281,09	245,07
281,31	290,68
281,52	286,31
281,74	495,34
281,95	279,75
282,17	301,05
282,38	400,72
282,60	343,92
282,81	334,64
283,02	186,23
283,24	233,88
283,45	360,85
283,67	234,01
283,88	364,81
284,10	351,29
284,31	307,47
284,53	232,79
284,74	337,91
284,95	356,48
285,17	349,93
285,38	321,12
285,60	277,29
285,81	260,23
286,03	345,97
286,24	333,82
286,45	387,20
286,67	359,76
286,88	246,58
287,10	289,31
287,31	228,96
287,53	344,20
287,74	327,54
287,95	248,08
288,17	365,36
288,38	268,97
288,60	286,17
288,81	316,34
289,02	274,15
289,24	485,51
289,45	270,06
289,67	363,99
289,88	287,67
290,10	351,16
290,31	351,98
290,52	299,00
290,74	308,97
290,95	372,18
291,17	411,10
291,38	226,78
291,59	234,29
291,81	328,36
292,02	324,26
292,24	376,01
292,45	331,63
292,66	313,34
292,88	366,59
293,09	303,24
293,31	276,89
293,52	309,52
293,73	217,77
293,95	334,64
294,16	389,80
294,37	311,43
294,59	360,44
294,80	387,20
295,02	323,03
295,23	182,00
295,44	298,46
295,66	360,17
295,87	336,69
296,09	280,16
296,30	325,35
296,51	347,20
296,73	310,20
296,94	335,87
297,15	316,89
297,37	298,32
297,58	354,57
297,79	354,71
298,01	358,94
298,22	340,92
298,44	284,53
298,65	292,18
298,86	288,49
299,08	323,03
299,29	332,04
299,50	295,59
299,72	298,18
299,93	351,70
300,14	353,89
300,36	280,84
300,57	253,81
300,79	308,83
301,00	432,67
301,21	272,65
301,43	256,68
301,64	331,36
301,85	313,07
302,07	415,19
302,28	278,11
302,49	404,54
302,71	343,92
302,92	363,72
303,13	390,62
303,35	391,44
303,56	326,45
303,77	279,21
303,99	269,65
304,20	305,42
304,41	292,04
304,63	368,91
304,84	398,67
305,05	408,09
305,27	408,50
305,48	472,81
305,69	363,17
305,91	417,38
306,12	404,27
306,33	422,15
306,55	364,81
306,76	469,39
306,97	425,02
307,19	470,62
307,40	495,74
307,61	485,37
307,82	427,89
308,04	517,86
308,25	469,53
308,46	520,46
308,68	511,31
308,89	579,17
309,10	492,88
309,32	488,51
309,53	533,70
309,74	619,17
309,96	632,82
310,17	649,75
310,38	616,17
310,59	834,21
310,81	754,34
311,02	803,49
311,23	809,77
311,45	962,27
311,66	910,94
311,87	871,48
312,09	961,18
312,30	957,08
312,51	1094,30
312,72	1063,99
312,94	1224,00
313,15	1123,52
313,36	1265,37
313,58	1141,40
313,79	1379,65
314,00	1368,04
314,21	1305,65
314,43	1431,39
314,64	1435,49
314,85	1395,35
315,06	1366,54
315,28	1545,40
315,49	1568,47
315,70	1595,37
315,92	1851,09
316,13	2006,05
316,34	2064,76
316,55	2178,22
316,77	2129,61
316,98	2258,64
317,19	2172,89
317,40	2108,04
317,62	2241,02
317,83	2493,47
318,04	2433,40
318,25	2570,20
318,47	2614,03
318,68	2755,47
318,89	2839,85
319,11	2842,99
319,32	2991,54
319,53	3089,43
319,74	3302,83
319,96	3391,44
320,17	3413,28
320,38	3499,02
320,59	3560,87
320,81	3523,60
321,02	3398,54
321,23	3463,66
321,44	3523,87
321,65	3413,42
321,87	3405,64
322,08	3456,70
322,29	3375,33
322,50	3409,32
322,72	3709,96
322,93	3979,34
323,14	4324,22
323,35	4426,21
323,57	4608,61
323,78	4739,41
323,99	4646,57
324,20	4676,88
324,41	4770,40
324,63	4851,64
324,84	5118,97
325,05	5466,30
325,26	6028,54
325,48	6189,37
325,69	6634,74
325,90	6719,93
326,11	6762,53
326,32	6789,70
326,54	6895,24
326,75	6509,95
326,96	6402,77
327,17	6136,67
327,39	5982,94
327,60	6023,21
327,81	5923,82
328,02	6037,41
328,23	6366,59
328,45	6976,34
328,66	7254,04
328,87	7680,57
329,08	7785,15
329,29	8111,59
329,51	8205,53
329,72	8086,61
329,93	8087,43
330,14	7928,37
330,35	7706,64
330,56	7671,14
330,78	7587,18
330,99	7757,57
331,20	8111,59
331,41	8338,37
331,62	8302,33
331,84	8875,49
332,05	8555,87
332,26	8602,83
332,47	8299,46
332,68	8146,96
332,90	8230,38
333,11	7671,28
333,32	8132,35
333,53	7958,00
333,74	7935,61
333,95	8245,67
334,17	8404,18
334,38	8579,08
334,59	8601,20
334,80	8575,66
335,01	8283,35
335,22	8283,90
335,44	7925,23
335,65	7500,75
335,86	7584,58
336,07	7295,27
336,28	7222,37
336,49	7220,46
336,71	7331,73
336,92	7687,12
337,13	7743,64
337,34	7895,06
337,55	8369,64
337,76	8444,18
337,97	8520,92
338,19	8659,77
338,40	8671,92
338,61	8921,91
338,82	8897,20
339,03	9215,04
339,24	9293,41
339,45	9216,27
339,67	9569,20
339,88	9482,78
340,09	9343,79
340,30	8941,57
340,51	9016,25
340,72	9010,38
340,93	8869,89
341,15	9212,58
341,36	9413,01
341,57	9302,69
341,78	9529,34
341,99	9606,34
342,20	9747,38
342,41	9764,03
342,62	9771,81
342,84	9225,42
343,05	9203,16
343,26	8511,49
343,47	8423,43
343,68	7948,03
343,89	7972,47
344,10	8348,20
344,31	8633,28
344,53	8997,00
344,74	9291,91
344,95	9365,63
345,16	9389,66
345,37	9428,58
345,58	9278,66
345,79	9448,92
346,00	9595,01
346,21	9653,17
346,42	9860,97
346,64	9547,49
346,85	9630,37
347,06	9475,00
347,27	9390,48
347,48	9685,25
347,69	9437,72
347,90	9590,23
348,11	9615,62
348,32	9230,88
348,53	9436,77
348,75	9679,66
348,96	9608,25
349,17	10132,12
349,38	10447,64
349,59	10639,74
349,80	11069,54
350,01	11132,21
350,22	11304,92
350,43	10604,38
350,64	10929,05
350,85	10779,42
351,06	10342,92
351,28	10459,93
351,49	10156,56
351,70	10381,29
351,91	9950,53
352,12	10265,24
352,33	10022,49
352,54	10904,34
352,75	10901,20
352,96	11254,41
353,17	11855,55
353,38	11703,87
353,59	12000,69
353,80	12195,24
354,01	12052,57
354,22	11895,56
354,44	11841,49
354,65	11733,09
354,86	11548,22
355,07	11293,59
355,28	11079,37
355,49	10964,96
355,70	10543,49
355,91	10335,01
356,12	9597,33
356,33	9354,03
356,54	9290,13
356,75	9138,45
356,96	9169,30
357,17	8949,35
357,38	8651,58
357,59	8128,66
357,80	8271,88
358,01	8397,08
358,22	8772,00
358,43	9454,11
358,64	10158,47
358,85	10987,22
359,07	11304,51
359,28	11820,74
359,49	11622,36
359,70	11354,21
359,91	11190,92
360,12	10554,68
360,33	10460,48
360,54	10279,57
360,75	10283,53
360,96	10410,64
361,17	10067,81
361,38	10425,39
361,59	11208,53
361,80	11542,62
362,01	11560,65
362,22	11811,59
362,43	11777,46
362,64	11736,23
362,85	11854,87
363,06	11804,63
363,27	12134,21
363,48	12256,96
363,69	12324,13
363,90	12005,47
364,11	12328,91
364,32	12191,15
364,53	12693,86
364,74	13265,38
364,95	14140,00
365,16	14303,83
365,37	14832,07
365,58	14711,38
365,79	14913,99
366,00	14939,11
366,21	14618,54
366,42	14509,86
366,63	14363,22
366,84	14096,99
367,05	13844,81
367,26	13748,83
367,47	13289,13
367,68	13052,80
367,89	13003,24
368,10	12508,58
368,31	12067,31
368,52	12895,10
368,73	13837,44
368,94	13907,62
369,15	13901,88
369,36	14249,36
369,57	14230,38
369,78	13914,72
369,99	13998,28
370,20	13962,64
370,40	14054,25
370,61	14509,31
370,82	14637,52
371,03	14560,78
371,24	14414,83
371,45	13918,54
371,66	13251,86
371,87	12975,93
372,08	13564,79
372,29	13094,58
372,50	12341,74
372,71	12290,54
372,92	12117,56
373,13	11591,64
373,34	11719,71
373,55	11793,98
373,76	11924,78
373,97	11676,56
374,18	11738,00
374,39	12112,64
374,60	12833,66
374,81	13332,00
375,01	13441,77
375,22	14142,04
375,43	13882,91
375,64	14149,42
375,85	13661,18
376,06	14075,55
376,27	14554,50
376,48	15194,84
376,69	15330,96
376,90	16050,07
377,11	17190,24
377,32	16937,25
377,53	17514,91
377,74	17332,23
377,94	16901,89
378,15	16413,10
378,36	15494,93
378,57	15051,75
378,78	14385,62
378,99	14218,23
379,20	14455,66
379,41	14554,91
379,62	14963,14
379,83	15364,00
380,04	15985,08
380,25	16020,71
380,45	15619,72
380,66	15215,59
380,87	14387,39
381,08	13607,39
381,29	12917,63
381,50	11988,81
381,71	11540,17
381,92	11209,76
382,13	10522,19
382,34	9801,17
382,55	9756,80
382,75	9798,98
382,96	9705,05
383,17	10090,07
383,38	10978,48
383,59	11564,33
383,80	12255,45
384,01	13137,45
384,22	14229,97
384,43	14136,58
384,63	13357,26
384,84	13607,11
385,05	13246,13
385,26	13373,92
385,47	13518,64
385,68	13683,71
385,89	13974,93
386,10	13882,09
386,30	13853,01
386,51	13468,94
386,72	13842,90
386,93	13456,79
387,14	13591,82
387,35	13819,15
387,56	13718,93
387,77	13486,97
387,97	13831,71
388,18	14254,41
388,39	14588,09
388,60	15335,19
388,81	15698,77
389,02	16533,93
389,23	16828,98
389,43	16862,84
389,64	16775,32
389,85	16581,72
390,06	17141,23
390,27	17868,66
390,48	18200,43
390,69	18139,41
390,89	18850,19
391,10	18011,20
391,31	17182,05
391,52	16507,99
391,73	15681,84
391,94	14050,16
392,14	12456,29
392,35	11049,61
392,56	10013,61
392,77	9669,01
392,98	9589,14
393,19	10048,15
393,39	11336,74
393,60	12522,92
393,81	14505,08
394,02	15212,31
394,23	16448,60
394,44	17044,15
394,64	17937,75
394,85	18569,21
395,06	17350,53
395,27	16663,50
395,48	15965,83
395,69	13744,19
395,89	12819,19
396,10	12009,15
396,31	11228,06
396,52	11642,70
396,73	12835,44
396,93	15089,02
397,14	16027,27
397,35	18751,61
397,56	19662,14
397,77	20757,39
397,97	22143,59
398,18	23232,84
398,39	22718,66
398,60	23590,28
398,81	23326,77
399,01	24285,91
399,22	23712,20
399,43	24191,56
399,64	24359,22
399,85	24248,91
400,05	24446,88
400,26	24533,85
400,47	24759,94
400,68	25489,43
400,89	25321,36
401,09	26119,66
401,30	26454,70
401,51	26139,86
401,72	25922,64
401,93	26504,81
402,13	26174,00
402,34	25499,26
402,55	25597,97
402,76	25338,83
402,96	25611,76
403,17	24702,87
403,38	25400,82
403,59	24680,62
403,80	26095,08
404,00	24829,03
404,21	24520,88
404,42	25570,39
404,63	25388,53
404,83	25554,01
405,04	24012,57
405,25	24442,23
405,46	24195,93
405,66	23593,56
405,87	24151,97
406,08	23897,34
406,29	24946,85
406,49	24298,74
406,70	24489,61
406,91	24106,37
407,12	25647,67
407,32	24778,24
407,53	26053,03
407,74	26288,82
407,95	25648,62
408,15	26706,33
408,36	26449,52
408,57	26486,11
408,78	26295,51
408,98	25513,19
409,19	24181,46
409,40	24623,55
409,61	23496,07
409,81	23905,53
410,02	24446,60
410,23	25198,07
410,44	26600,66
410,64	26806,68
410,85	26768,86
411,06	27357,18
411,26	27191,70
411,47	27521,56
411,68	27749,70
411,89	26351,62
412,09	26862,80
412,30	26608,17
412,51	25585,14
412,72	25899,43
412,92	27002,06
413,13	26599,15
413,34	26504,27
413,54	26425,49
413,75	26742,65
413,96	26380,98
414,17	25862,02
414,37	26352,03
414,58	26149,83
414,79	26775,28
414,99	26140,27
415,20	26866,76
415,41	27028,41
415,61	27724,31
415,82	27570,30
416,03	26390,94
416,24	26412,24
416,44	26738,55
416,65	26346,03
416,86	26519,97
417,06	25669,92
417,27	25499,12
417,48	25181,14
417,68	26101,91
417,89	26256,46
418,10	25305,11
418,30	26186,28
418,51	25814,24
418,72	25666,24
418,92	26774,73
419,13	25141,82
419,34	25601,93
419,55	25709,11
419,75	26566,80
419,96	26460,71
420,17	27667,38
420,37	27597,47
420,58	26484,88
420,79	26315,44
420,99	27540,67
421,20	27728,00
421,41	26687,35
421,61	26351,21
421,82	24696,05
422,03	25570,66
422,23	24776,33
422,44	25630,19
422,65	25793,07
422,85	25529,43
423,06	25996,64
423,26	26516,28
423,47	27317,04
423,68	26068,59
423,88	26881,64
424,09	26109,83
424,30	26215,37
424,50	26411,83
424,71	26400,64
424,92	25945,72
425,12	25691,22
425,33	26921,78
425,54	26858,15
425,74	26951,95
425,95	26121,98
426,15	26841,09
426,36	24919,27
426,57	25889,60
426,77	24915,31
426,98	25560,02
427,19	25175,95
427,39	26100,82
427,60	25335,97
427,81	25492,02
428,01	25049,52
428,22	26153,24
428,42	23828,12
428,63	24248,63
428,84	23537,17
429,04	22361,09
429,25	21571,12
429,45	20220,14
429,66	20218,91
429,87	19963,74
430,07	19491,61
430,28	19975,48
430,49	20994,41
430,69	23004,15
430,90	24236,34
431,10	25133,49
431,31	26288,00
431,52	27597,74
431,72	26500,31
431,93	26232,57
432,13	27251,36
432,34	27934,02
432,55	26914,68
432,75	27889,37
432,96	27179,69
433,16	26438,87
433,37	26369,65
433,58	26760,94
433,78	26701,01
433,99	25160,12
434,19	27134,90
434,40	27738,64
434,60	28308,25
434,81	28393,18
435,02	28507,73
435,22	29507,13
435,43	28989,54
435,63	29288,96
435,84	30379,98
436,05	30423,12
436,25	28649,58
436,46	30032,64
436,66	29464,40
436,87	28897,25
437,07	27682,94
437,28	27339,15
437,48	27274,30
437,69	26235,44
437,90	26470,54
438,10	26274,35
438,31	26474,37
438,51	28287,36
438,72	27714,61
438,92	28143,05
439,13	28284,09
439,34	28256,78
439,54	28238,76
439,75	27787,66
439,95	27767,45
440,16	28640,43
440,36	29037,88
440,57	29173,18
440,77	30266,79
440,98	29639,71
441,18	29724,08
441,39	30154,02
441,60	31456,94
441,80	30933,34
442,01	29389,31
442,21	31039,42
442,42	29608,03
442,62	30202,49
442,83	30129,44
443,03	30402,78
443,24	30245,90
443,44	30414,52
443,65	30824,93
443,85	30479,51
444,06	30402,92
444,26	30629,15
444,47	29555,33
444,67	30156,61
444,88	29214,55
445,09	28350,44
445,29	29050,03
445,50	28833,22
445,70	28461,44
445,91	29328,28
446,11	28977,26
446,32	30204,26
446,52	30732,37
446,73	30620,68
446,93	31273,30
447,14	30834,35
447,34	31376,25
447,55	30036,33
447,75	30958,32
447,96	31393,04
448,16	30694,82
448,37	30840,36
448,57	30663,01
448,78	31198,48
448,98	30876,41
449,19	31395,77
449,39	32366,37
449,60	31886,46
449,80	33155,11
450,01	33552,28
450,21	32976,12
450,42	33171,77
450,62	32678,62
450,83	32507,54
451,03	32112,01
451,23	32170,72
451,44	31853,56
451,64	31807,82
451,85	30689,22
452,05	31004,47
452,26	30490,43
452,46	29610,62
452,67	29980,90
452,87	29875,09
453,08	30686,35
453,28	29569,26
453,49	31759,22
453,69	30687,58
453,90	31005,97
454,10	31325,46
454,31	31019,76
454,51	30735,78
454,71	30940,58
454,92	30858,79
455,12	31012,66
455,33	31880,18
455,53	32954,96
455,74	33713,12
455,94	34032,87
456,15	34498,58
456,35	35761,77
456,55	34820,11
456,76	35509,32
456,96	36896,89
457,17	33856,47
457,37	36926,92
457,58	35325,96
457,78	36147,47
457,99	35259,74
458,19	33590,10
458,39	35256,46
458,60	36691,41
458,80	35744,84
459,01	34946,68
459,21	34671,97
459,42	36024,45
459,62	34598,93
459,82	37562,89
460,03	36961,33
460,23	37225,93
460,44	37411,47
460,64	35344,12
460,85	38450,89
461,05	36373,84
461,25	36471,05
461,46	39013,40
461,66	38004,43
461,87	37250,78
462,07	37697,37
462,27	36412,20
462,48	36212,05
462,68	37074,38
462,89	36717,76
463,09	35940,21
463,29	36927,20
463,50	36289,60
463,70	36825,07
463,91	35233,25
464,11	35623,73
464,31	36071,97
464,52	36555,01
464,72	37833,36
464,93	37236,44
465,13	37983,68
465,33	37048,71
465,54	36345,57
465,74	36126,85
465,95	36641,98
466,15	36066,23
466,35	36890,61
466,56	37002,97
466,76	37427,58
466,96	36923,37
467,17	37397,68
467,37	37656,27
467,58	37706,93
467,78	37756,08
467,98	38716,30
468,19	37717,30
468,39	39282,09
468,59	39586,69
468,80	38361,19
469,00	38283,91
469,21	37924,42
469,41	37920,19
469,61	39006,71
469,82	37480,42
470,02	38899,53
470,22	39803,91
470,43	39583,41
470,63	39267,89
470,83	41949,09
471,04	41007,43
471,24	41365,28
471,45	41612,68
471,65	42547,10
471,85	41398,60
472,06	42320,73
472,26	41933,80
472,46	41817,88
472,67	42276,49
472,87	42013,40
473,07	42203,58
473,28	41874,82
473,48	43451,75
473,68	43531,08
473,89	43957,46
474,09	44358,05
474,29	43948,59
474,50	44442,42
474,70	44004,98
474,90	44657,87
475,11	44465,09
475,31	44301,11
475,51	43880,46
475,72	43888,65
475,92	43590,61
476,12	43224,02
476,33	45032,10
476,53	45571,81
476,73	46269,76
476,93	47158,44
477,14	47035,29
477,34	47037,88
477,54	47629,34
477,75	47548,78
477,95	47482,16
478,15	47494,99
478,36	48193,07
478,56	48249,05
478,76	49112,34
478,97	49290,51
479,17	49004,48
479,37	49159,58
479,57	49230,85
479,78	48970,35
479,98	49621,33
480,18	50068,47
480,39	50320,09
480,59	51328,51
480,79	51455,49
480,99	51445,52
481,20	52183,34
481,40	51911,78
481,60	51875,87
481,81	51623,01
482,01	51720,36
482,21	51641,58
482,41	51957,10
482,62	51699,74
482,82	52108,52
483,02	53043,07
483,23	52420,49
483,43	52922,79
483,63	52010,76
483,83	52302,39
484,04	53608,72
484,24	52342,26
484,44	52346,63
484,64	50938,17
484,85	49565,76
485,05	48000,16
485,25	46955,69
485,45	45699,19
485,66	45810,74
485,86	45721,04
486,06	46560,02
486,26	47860,21
486,47	48789,17
486,67	49988,32
486,87	50933,12
487,07	51732,37
487,28	51642,26
487,48	52330,65
487,68	53431,91
487,88	52732,33
488,09	52792,67
488,29	52657,65
488,49	53735,56
488,69	54014,77
488,90	55050,22
489,10	55340,89
489,30	55664,75
489,50	56050,72
489,71	56574,32
489,91	56632,21
490,11	56300,85
490,31	56004,71
490,52	55752,26
490,72	55136,78
490,92	55533,81
491,12	54559,94
491,32	53968,07
491,53	54144,61
491,73	54062,14
491,93	55097,73
492,13	55773,02
492,33	56097,82
492,54	55697,10
492,74	56437,51
492,94	55882,24
493,14	56412,94
493,35	56329,38
493,55	56500,18
493,75	57403,47
493,95	57412,89
494,15	57626,84
494,36	58668,71
494,56	57531,40
494,76	57478,97
494,96	57171,91
495,16	57004,94
495,37	57202,09
495,57	57466,69
495,77	57443,48
495,97	57548,60
496,17	58234,67
496,37	57749,31
496,58	58241,77
496,78	56997,56
496,98	57442,52
497,18	56711,39
497,38	56221,52
497,59	56138,24
497,79	55295,84
497,99	55338,71
498,19	55836,37
498,39	55866,40
498,59	56701,56
498,80	56393,41
499,00	56158,72
499,20	56098,10
499,40	54758,72
499,60	55035,20
499,80	54436,10
500,01	54040,16
500,21	53366,24
500,41	53198,04
500,61	53246,91
500,81	52395,37
501,01	52610,41
501,22	52213,78
501,42	52554,84
501,62	52485,21
501,82	52745,57
502,02	53158,99
502,22	53028,60
502,42	52876,10
502,63	53318,87
502,83	52360,42
503,03	51797,64
503,23	51287,55
503,43	50658,15
503,63	50604,22
503,83	51177,37
504,04	50492,12
504,24	51093,68
504,44	50928,61
504,64	51665,34
504,84	51687,18
505,04	51589,83
505,24	52124,63
505,44	52010,35
505,65	51521,30
505,85	51350,36
506,05	50678,63
506,25	50269,85
506,45	49761,95
506,65	49133,50
506,85	49173,23
507,05	48990,55
507,26	48626,83
507,46	48609,08
507,66	48999,02
507,86	48880,65
508,06	49956,92
508,26	50076,11
508,46	50211,55
508,66	50610,36
508,86	50713,17
509,06	50701,15
509,27	50666,47
509,47	50640,40
509,67	50838,37
509,87	50870,31
510,07	51241,41
510,27	51834,77
510,47	52055,27
510,67	52332,84
510,87	52790,49
511,07	53115,71
511,28	53003,89
511,48	52096,64
511,68	52333,25
511,88	52039,57
512,08	51520,61
512,28	51526,35
512,48	51125,36
512,68	51313,36
512,88	50961,65
513,08	51146,38
513,28	50922,47
513,48	50776,79
513,68	51167,82
513,89	51062,00
514,09	50563,26
514,29	51656,87
514,49	51713,94
514,69	51798,45
514,89	52071,11
515,09	52434,01
515,29	52027,28
515,49	50999,88
515,69	49665,29
515,89	48432,00
516,09	47182,74
516,29	46029,87
516,49	45999,15
516,69	46856,57
516,89	47003,48
517,09	47633,16
517,29	47859,66
517,50	47708,52
517,70	47610,36
517,90	47843,42
518,10	47921,79
518,30	49662,97
518,50	49130,77
518,70	50278,86
518,90	51752,85
519,10	52011,99
519,30	52514,29
519,50	52718,95
519,70	52746,94
519,90	52815,07
520,10	53122,94
520,30	52965,39
520,50	52846,47
520,70	53861,58
520,90	53677,94
521,10	53977,36
521,30	53944,86
521,50	54604,72
521,70	54012,85
521,90	53659,51
522,10	53590,84
522,30	52789,67
522,50	53089,49
522,70	53152,43
522,90	54141,88
523,10	54508,46
523,30	55142,10
523,50	55182,65
523,70	55639,76
523,90	55678,81
524,10	55527,81
524,30	54797,09
524,50	55095,68
524,70	55393,73
524,90	55087,63
525,10	54975,26
525,30	53875,37
525,50	53331,43
525,70	52181,29
525,90	50664,43
526,10	50011,40
526,30	50089,36
526,50	50215,24
526,70	50722,45
526,90	51348,04
527,10	51760,09
527,30	52609,45
527,50	53539,91
527,70	53787,03
527,90	54413,44
528,10	54662,88
528,30	55421,17
528,50	55508,42
528,70	55176,92
528,90	55291,74
529,10	54836,68
529,30	54482,93
529,50	54939,63
529,70	55003,66
529,90	55353,18
530,10	55761,00
530,29	55723,73
530,49	56112,84
530,69	56005,26
530,89	55872,68
531,09	55101,15
531,29	54490,85
531,49	54151,16
531,69	53084,58
531,89	52602,49
532,09	52257,20
532,29	51807,47
532,49	52109,88
532,69	52713,49
532,89	52844,28
533,09	52786,12
533,29	53207,87
533,49	53140,15
533,68	53142,47
533,88	54015,04
534,08	53734,88
534,28	53714,12
534,48	54088,63
534,68	54430,91
534,88	54422,99
535,08	55181,97
535,28	55165,86
535,48	54835,05
535,68	53933,53
535,88	53614,73
536,08	52898,62
536,27	52843,74
536,47	52268,39
536,67	53142,88
536,87	53095,09
537,07	53008,67
537,27	53512,88
537,47	53362,69
537,67	53019,86
537,87	53319,41
538,07	53605,45
538,27	52790,22
538,46	52760,45
538,66	52149,20
538,86	51238,40
539,06	51522,80
539,26	50877,55
539,46	50343,30
539,66	50179,47
539,86	49868,59
540,06	49752,40
540,25	49765,23
540,45	49594,16
540,65	49934,26
540,85	50508,78
541,05	50936,40
541,25	50814,20
541,45	50700,88
541,65	50733,10
541,85	50544,55
542,04	50446,25
542,24	50356,14
542,44	50079,25
542,64	50230,26
542,84	50140,01
543,04	50402,15
543,24	50421,81
543,43	50835,77
543,63	50876,19
543,83	50667,02
544,03	50192,44
544,23	50113,80
544,43	50279,95
544,63	50361,87
544,82	50600,39
545,02	49645,90
545,22	50379,62
545,42	49449,16
545,62	50055,22
545,82	49752,94
546,02	49743,52
546,21	49710,35
546,41	49294,88
546,61	48847,88
546,81	48918,74
547,01	48364,97
547,21	48612,77
547,40	48382,44
547,60	48216,69
547,80	48334,25
548,00	48886,11
548,20	48882,15
548,40	48755,17
548,59	48917,51
548,79	48894,57
548,99	49081,07
549,19	48626,15
549,39	48290,97
549,59	48660,42
549,78	47773,65
549,98	48169,59
550,18	47654,59
550,38	47778,43
550,58	47902,13
550,77	47852,84
550,97	48199,22
551,17	47824,85
551,37	48253,15
551,57	47865,13
551,76	47558,34
551,96	47117,21
552,16	46768,37
552,36	47130,18
552,56	46945,86
552,75	46944,90
552,95	47044,71
553,15	47283,50
553,35	47100,14
553,55	46780,79
553,74	47460,45
553,94	46856,02
554,14	47007,57
554,34	46943,27
554,54	47120,35
554,73	46998,56
554,93	46994,33
555,13	46836,91
555,33	46234,81
555,53	46176,51
555,72	45521,84
555,92	45454,12
556,12	45092,04
556,32	44710,43
556,51	44749,48
556,71	44948,82
556,91	44714,80
557,11	44658,42
557,30	44764,36
557,50	44432,46
557,70	43737,24
557,90	43701,33
558,10	43230,98
558,29	42706,43
558,49	43160,53
558,69	42541,50
558,89	42637,21
559,08	42740,02
559,28	42718,72
559,48	42693,59
559,68	43021,13
559,87	43548,01
560,07	43570,26
560,27	43881,42
560,47	43465,54
560,66	43440,28
560,86	42864,12
561,06	42446,88
561,25	42554,47
561,45	42539,18
561,65	42604,99
561,85	42451,39
562,04	42642,81
562,24	42526,89
562,44	42705,88
562,64	42317,31
562,83	42570,03
563,03	42139,14
563,23	42044,93
563,42	41859,66
563,62	42139,01
563,82	41701,70
564,02	42026,64
564,21	41722,18
564,41	41699,10
564,61	41379,48
564,80	41032,15
565,00	40667,61
565,20	40364,51
565,40	40141,96
565,59	40111,38
565,79	40655,73
565,99	40748,30
566,18	40714,44
566,38	40773,69
566,58	40560,02
566,78	40760,04
566,97	40904,76
567,17	40715,12
567,37	40318,77
567,56	39874,50
567,76	39435,96
567,96	39267,07
568,15	38948,41
568,35	38956,73
568,55	39098,73
568,74	38901,44
568,94	39015,31
569,14	38875,09
569,33	38395,86
569,53	38266,02
569,73	38285,00
569,92	37702,01
570,12	37402,74
570,32	37436,73
570,52	36983,72
570,71	37261,43
570,91	37415,57
571,11	37840,05
571,30	37911,18
571,50	38228,89
571,70	38411,57
571,89	38184,10
572,09	38329,24
572,28	38352,45
572,48	38284,05
572,68	38351,90
572,87	38419,76
573,07	38608,72
573,27	38029,69
573,46	38200,90
573,66	38009,21
573,86	37774,37
574,05	37863,26
574,25	37409,97
574,45	37093,36
574,64	37115,75
574,84	37127,35
575,04	36958,60
575,23	37041,34
575,43	37069,74
575,62	37346,21
575,82	36946,72
576,02	36734,14
576,21	37300,75
576,41	37415,98
576,61	37368,47
576,80	37077,11
577,00	36837,09
577,19	36775,24
577,39	36795,72
577,59	36521,02
577,78	36399,50
577,98	36549,83
578,18	36453,71
578,37	36619,87
578,57	37007,20
578,76	37018,54
578,96	36904,81
579,16	37272,49
579,35	37777,24
579,55	37093,49
579,74	37443,83
579,94	37625,15
580,14	37894,79
580,33	37922,51
580,53	38057,95
580,72	38025,18
580,92	38189,16
581,12	37980,81
581,31	38253,19
581,51	38586,33
581,70	38426,99
581,90	38743,34
582,10	38797,27
582,29	39089,85
582,49	38767,64
582,68	38833,04
582,88	39103,10
583,07	38950,18
583,27	38874,41
583,47	39216,83
583,66	39120,44
583,86	38632,34
584,05	38671,52
584,25	38150,79
584,44	38474,37
584,64	37859,57
584,84	37934,93
585,03	37611,63
585,23	37261,84
585,42	37532,30
585,62	37250,23
585,81	37514,15
586,01	37682,35
586,20	37698,74
586,40	37648,36
586,60	37393,45
586,79	37529,85
586,99	37119,30
587,18	36837,91
587,38	36462,99
587,57	35715,35
587,77	34924,28
587,96	34109,47
588,16	33039,33
588,35	32324,87
588,55	31793,49
588,75	31487,25
588,94	31407,79
589,14	31667,47
589,33	31830,21
589,53	32888,19
589,72	32826,89
589,92	33743,70
590,11	33630,51
590,31	34008,30
590,50	34150,02
590,70	33850,60
590,89	34032,19
591,09	33727,72
591,28	33643,76
591,48	33755,17
591,67	33517,74
591,87	33794,49
592,06	33847,74
592,26	34184,56
592,45	34202,17
592,65	34449,97
592,84	34092,26
593,04	34145,51
593,23	33763,63
593,43	33615,63
593,62	33270,21
593,82	32871,13
594,01	32795,76
594,21	33173,41
594,40	32938,71
594,60	32959,60
594,79	33275,94
594,99	33220,78
595,18	33618,50
595,38	33571,26
595,57	33581,91
595,77	33967,34
595,96	33872,31
596,16	33812,65
596,35	33509,00
596,55	33579,04
596,74	33614,40
596,94	33342,71
597,13	33297,24
597,33	33405,24
597,52	33105,28
597,72	33119,34
597,91	33312,94
598,11	33119,48
598,30	33280,45
598,50	33534,94
598,69	33114,43
598,88	33264,61
599,08	32975,71
599,27	33402,51
599,47	32868,94
599,66	33310,48
599,86	32970,80
600,05	32989,77
600,25	33065,55
600,44	32585,91
600,64	32750,71
600,83	32580,18
601,02	32693,36
601,22	32483,79
601,41	32236,67
601,61	32527,48
601,80	32291,28
602,00	32593,56
602,19	32287,32
602,38	32473,68
602,58	32530,89
602,77	32824,16
602,97	32849,69
603,16	33189,93
603,36	32531,98
603,55	33125,48
603,74	32510,14
603,94	32719,30
604,13	32760,81
604,33	32871,54
604,52	32434,91
604,72	32400,09
604,91	32195,98
605,10	32560,38
605,30	31988,32
605,49	32140,41
605,69	32076,92
605,88	31813,69
606,07	32141,37
606,27	32099,45
606,46	31850,56
606,66	31884,28
606,85	31230,70
607,04	31544,04
607,24	31150,83
607,43	31342,25
607,63	30950,00
607,82	31048,57
608,01	31062,50
608,21	30643,89
608,40	30861,39
608,60	30512,96
608,79	30588,87
608,98	30284,82
609,18	30710,66
609,37	30229,79
609,57	29944,03
609,76	30121,80
609,95	30108,14
610,15	30452,34
610,34	30380,39
610,53	30263,52
610,73	30165,76
610,92	30378,20
611,11	30190,75
611,31	30170,54
611,50	29886,28
611,70	29985,95
611,89	30068,96
612,08	30197,57
612,28	30029,23
612,47	30016,53
612,66	29775,55
612,86	29882,73
613,05	29626,33
613,24	29509,18
613,44	29632,06
613,63	29770,78
613,82	29894,20
614,02	30062,00
614,21	29753,30
614,41	29909,63
614,60	30319,36
614,79	29804,36
614,99	29695,00
615,18	29739,37
615,37	29364,87
615,57	29761,90
615,76	29329,64
615,95	29174,82
616,15	29184,65
616,34	29737,05
616,53	29867,58
616,73	30114,97
616,92	30198,39
617,11	30383,12
617,30	30316,22
617,50	30608,80
617,69	30763,77
617,88	30981,81
618,08	30664,65
618,27	31058,81
618,46	30883,51
618,66	30952,04
618,85	30987,68
619,04	31105,37
619,24	31582,95
619,43	31730,68
619,62	31589,10
619,82	31603,30
620,01	31569,30
620,20	31657,91
620,39	31362,32
620,59	31360,96
620,78	31271,94
620,97	31379,93
621,17	31218,42
621,36	31478,51
621,55	31212,14
621,74	31374,20
621,94	31084,89
622,13	31194,80
622,32	31061,00
622,52	30890,47
622,71	31005,43
622,90	30860,02
623,09	30679,39
623,29	30730,32
623,48	30586,41
623,67	30630,24
623,86	30303,52
624,06	30258,33
624,25	30467,36
624,44	30243,58
624,64	30220,51
624,83	29978,85
625,02	29695,82
625,21	30015,17
625,41	30032,78
625,60	30126,44
625,79	30082,61
625,98	30148,56
626,18	30587,51
626,37	29842,18
626,56	29374,43
626,75	29277,22
626,95	28370,78
627,14	28025,50
627,33	27896,75
627,52	27917,09
627,72	27887,46
627,91	28147,01
628,10	28367,37
628,29	28433,04
628,49	28214,73
628,68	28254,19
628,87	28093,22
629,06	28582,27
629,25	28185,24
629,45	27996,28
629,64	28301,43
629,83	28637,84
630,02	28341,98
630,22	28490,25
630,41	28491,34
630,60	28473,73
630,79	28044,88
630,98	28165,58
631,18	28066,87
631,37	27937,84
631,56	28401,37
631,75	28714,84
631,94	28893,97
632,14	28846,87
632,33	28664,87
632,52	28830,76
632,71	29016,58
632,90	28712,52
633,10	28865,30
633,29	28523,70
633,48	28552,23
633,67	28684,26
633,86	28866,12
634,06	28747,75
634,25	28864,62
634,44	29107,51
634,63	28877,04
634,82	28993,91
635,02	28556,19
635,21	28721,40
635,40	28599,06
635,59	28702,96
635,78	28698,60
635,97	28746,65
636,17	28518,37
636,36	29090,30
636,55	29040,61
636,74	29254,96
636,93	28764,68
637,12	29303,43
637,32	29380,57
637,51	28974,93
637,70	29157,20
637,89	29137,27
638,08	29106,00
638,27	29152,84
638,47	28899,43
638,66	28907,22
638,85	28401,23
639,04	28690,95
639,23	28294,46
639,42	28549,50
639,62	28513,73
639,81	28360,00
640,00	28295,28
640,19	28071,64
640,38	28003,24
640,57	28140,59
640,76	27977,57
640,95	28066,73
641,15	28126,39
641,34	28085,43
641,53	27972,52
641,72	28139,50
641,91	28310,98
642,10	28103,59
642,29	28169,67
642,49	28154,52
642,68	27860,02
642,87	28064,54
643,06	28158,61
643,25	28079,15
643,44	27839,95
643,63	27963,92
643,82	27869,71
644,01	28141,28
644,21	27896,20
644,40	27746,70
644,59	27437,46
644,78	27597,74
644,97	27118,25
645,16	27233,89
645,35	26815,97
645,54	26991,68
645,73	26545,09
645,92	26717,12
646,12	26317,63
646,31	26121,43
646,50	26060,81
646,69	26048,93
646,88	25648,90
647,07	25745,15
647,26	25451,34
647,45	25314,53
647,64	25340,06
647,83	25535,17
648,02	25484,92
648,22	25407,78
648,41	25243,13
648,60	24848,14
648,79	24822,88
648,98	25000,92
649,17	24983,72
649,36	25208,04
649,55	25554,69
649,74	25703,92
649,93	25742,83
650,12	26075,97
650,31	25888,51
650,50	25686,85
650,69	25469,50
650,88	25464,72
651,08	24816,19
651,27	25272,75
651,46	25299,65
651,65	25219,78
651,84	25233,02
652,03	25670,06
652,22	25514,41
652,41	25534,76
652,60	25882,50
652,79	25845,78
652,98	25528,07
653,17	25693,82
653,36	25528,89
653,55	25355,49
653,74	25125,03
653,93	25109,60
654,12	24621,77
654,31	24702,33
654,50	24599,11
654,69	24094,22
654,88	23401,87
655,07	22790,07
655,26	21780,83
655,45	21433,09
655,64	20971,88
655,83	21162,07
656,02	21415,34
656,21	21835,72
656,40	22040,79
656,59	22826,80
656,78	22821,88
656,97	23349,57
657,17	23814,19
657,36	23923,96
657,55	23975,71
657,74	24324,68
657,93	24341,88
658,12	24408,51
658,31	24549,96
658,50	24643,48
658,69	24278,53
658,87	24692,50
659,06	24492,61
659,25	24704,65
659,44	24608,39
659,63	24848,82
659,82	24772,78
660,01	24695,36
660,20	24791,48
660,39	24902,48
660,58	24749,57
660,77	24864,53
660,96	24959,55
661,15	24720,62
661,34	24936,75
661,53	24820,84
661,72	24854,97
661,91	24849,78
662,10	24590,51
662,29	24623,55
662,48	24206,85
662,67	24458,21
662,86	24082,20
663,05	24237,44
663,24	24384,48
663,43	24232,80
663,62	24192,11
663,81	24194,70
664,00	24321,81
664,19	24163,30
664,38	24310,21
664,57	24187,74
664,76	24228,43
664,94	24134,90
665,13	23978,57
665,32	23939,80
665,51	23946,90
665,70	23687,90
665,89	23875,63
666,08	23753,84
666,27	23768,45
666,46	23655,40
666,65	23500,85
666,84	23563,93
667,03	23635,47
667,22	23448,01
667,41	23489,38
667,60	23587,41
667,78	23456,75
667,97	23547,54
668,16	23588,23
668,35	23532,53
668,54	23255,50
668,73	23414,29
668,92	23239,67
669,11	23223,56
669,30	23089,62
669,49	23058,90
669,68	23155,02
669,86	23068,32
670,05	23025,18
670,24	22884,41
670,43	22630,74
670,62	22718,53
670,81	22551,69
671,00	22544,31
671,19	22542,81
671,38	22313,71
671,57	22475,77
671,75	22426,90
671,94	22362,32
672,13	22468,27
672,32	22432,63
672,51	22414,88
672,70	22650,26
672,89	22229,61
673,08	22305,52
673,26	22373,65
673,45	22080,79
673,64	22212,13
673,83	22002,69
674,02	22108,51
674,21	22187,15
674,40	22113,56
674,59	22011,57
674,77	22093,62
674,96	22020,99
675,15	21955,59
675,34	21935,66
675,53	21964,19
675,72	21543,95
675,91	21831,89
676,09	21725,54
676,28	21896,61
676,47	21509,82
676,66	21471,04
676,85	21737,28
677,04	21777,83
677,22	21708,33
677,41	21566,07
677,60	21583,27
677,79	21364,00
677,98	21234,30
678,17	21267,06
678,36	21354,17
678,54	21209,72
678,73	21073,05
678,92	21188,28
679,11	21209,45
679,30	21145,69
679,48	20887,10
679,67	20947,99
679,86	21133,95
680,05	20962,87
680,24	20788,66
680,43	20826,34
680,61	20649,67
680,80	20733,64
680,99	20826,07
681,18	20789,75
681,37	20623,59
681,55	20925,05
681,74	20475,73
681,93	20627,28
682,12	20422,89
682,31	20435,18
682,49	20370,46
682,68	20294,41
682,87	20206,62
683,06	20133,58
683,25	20021,49
683,43	20245,26
683,62	19732,59
683,81	20119,79
684,00	20052,34
684,19	19865,84
684,37	19821,61
684,56	19586,77
684,75	19691,63
684,94	19605,34
685,12	19537,21
685,31	19421,16
685,50	18919,00
685,69	18012,98
685,88	16637,83
686,06	15342,15
686,25	14019,85
686,44	13188,51
686,63	12465,58
686,81	12752,02
687,00	12775,37
687,19	13234,66
687,38	13659,54
687,56	13883,32
687,75	14177,95
687,94	14170,31
688,13	13890,55
688,31	13962,91
688,50	13955,54
688,69	14048,66
688,88	14178,50
689,06	14311,62
689,25	14437,22
689,44	14564,06
689,63	14780,87
689,81	15093,80
690,00	15226,37
690,19	15514,87
690,38	15673,24
690,56	15663,27
690,75	16091,44
690,94	15991,36
691,13	16243,67
691,31	16360,40
691,50	16391,26
691,69	16297,87
691,87	16270,29
692,06	16135,81
692,25	16197,38
692,44	15983,44
692,62	15969,38
692,81	16148,10
693,00	15808,95
693,18	15723,35
693,37	15676,65
693,56	15543,13
693,75	15600,88
693,93	15782,74
694,12	15865,61
694,31	15730,17
694,49	15609,75
694,68	15963,23
694,87	15808,95
695,05	15953,81
695,24	16054,57
695,43	16205,44
695,62	16389,62
695,80	16780,24
695,99	16855,06
696,18	16967,28
696,36	17182,87
696,55	17126,07
696,74	16899,02
696,92	17062,99
697,11	16886,18
697,30	16927,42
697,48	16717,02
697,67	16605,48
697,86	16395,63
698,04	16273,02
698,23	16081,06
698,42	16025,77
698,60	15748,33
698,79	15886,37
698,98	15764,85
699,16	15676,79
699,35	15650,85
699,54	15581,36
699,72	15393,90
699,91	15712,43
700,10	15339,42
700,28	15361,27
700,47	15561,42
700,66	15288,50
700,84	15247,95
701,03	15174,77
701,21	15329,32
701,40	15300,37
701,59	15219,14
701,77	15234,02
701,96	15228,15
702,15	15502,85
702,33	15606,20
702,52	15637,06
702,71	15810,86
702,89	15762,12
703,08	15836,67
703,26	15780,69
703,45	16148,78
703,64	16024,26
703,82	15957,36
704,01	15951,63
704,20	15883,64
704,38	15846,50
704,57	15666,96
704,75	15563,74
704,94	15695,77
705,13	15887,87
705,31	15795,57
705,50	15679,25
705,68	15710,24
705,87	15920,77
706,06	15769,09
706,24	15925,55
706,43	15672,70
706,61	15849,64
706,80	15720,07
706,99	15887,87
707,17	15849,78
707,36	15887,46
707,54	15723,48
707,73	15839,95
707,92	15789,57
708,10	15687,30
708,29	15567,84
708,47	15769,22
708,66	15680,61
708,84	15681,30
709,03	15700,14
709,22	15589,96
709,40	15547,09
709,59	15768,54
709,77	15729,90
709,96	15795,44
710,14	15527,02
710,33	15659,86
710,52	15617,26
710,70	15760,48
710,89	15419,29
711,07	15472,54
711,26	15575,76
711,44	15465,44
711,63	15290,82
711,81	15435,68
712,00	15334,64
712,19	15196,06
712,37	15318,67
712,56	15337,51
712,74	15140,50
712,93	15228,56
713,11	15116,06
713,30	15066,50
713,48	15019,53
713,67	14938,43
713,85	14704,14
714,04	14771,59
714,22	14648,44
714,41	14603,52
714,59	14540,99
714,78	14534,30
714,97	14485,42
715,15	14180,00
715,34	14167,03
715,52	13739,96
715,71	13451,47
715,89	12679,38
716,08	12322,49
716,26	11759,85
716,45	11292,23
716,63	11059,03
716,82	10706,51
717,00	10572,98
717,19	10437,54
717,37	10264,42
717,56	9924,32
717,74	9745,74
717,93	9634,74
718,11	9506,94
718,30	9194,01
718,48	9372,46
718,67	9327,95
718,85	9164,39
719,04	9006,56
719,22	8911,39
719,41	9009,29
719,59	9148,41
719,78	9108,68
719,96	9570,84
720,15	10043,10
720,33	10683,71
720,52	10817,78
720,70	11246,35
720,88	11571,84
721,07	11717,52
721,25	11770,36
721,44	12010,65
721,62	11943,62
721,81	11981,16
721,99	11598,06
722,18	11531,16
722,36	11195,43
722,55	10875,12
722,73	10478,50
722,92	10358,35
723,10	10146,87
723,28	10122,97
723,47	9934,70
723,65	10032,59
723,84	9850,18
724,02	9808,81
724,21	9855,64
724,39	9665,18
724,58	9686,62
724,76	9857,97
724,94	9718,16
725,13	9881,18
725,31	9803,49
725,50	9905,62
725,68	9888,55
725,87	9823,56
726,05	9921,59
726,23	9994,50
726,42	9833,80
726,60	9756,11
726,79	9412,46
726,97	9542,72
727,16	9520,19
727,34	9725,53
727,52	9681,43
727,71	9931,42
727,89	9801,58
728,08	9786,97
728,26	9590,09
728,44	9556,91
728,63	9675,29
728,81	9682,66
729,00	9707,64
729,18	9949,17
729,36	9817,55
729,55	9813,46
729,73	9781,64
729,92	9770,45
730,10	9608,52
730,28	9772,91
730,47	9746,69
730,65	9816,60
730,84	9867,39
731,02	10043,78
731,20	10272,61
731,39	10432,08
731,57	10471,40
731,75	11068,72
731,94	10939,70
732,12	11057,53
732,31	10928,23
732,49	11127,16
732,67	11229,15
732,86	11400,22
733,04	11396,67
733,22	11632,33
733,41	11459,75
733,59	11718,34
733,78	11589,59
733,96	11485,83
734,14	11534,43
734,33	11386,71
734,51	11469,03
734,69	11351,48
734,88	11213,18
735,06	11290,04
735,24	11184,09
735,43	11223,14
735,61	11047,15
735,79	11150,37
735,98	11103,13
736,16	11309,02
736,34	11149,96
736,53	11374,83
736,71	11443,78
736,89	11465,76
737,08	11231,61
737,26	11418,24
737,44	11345,75
737,63	11257,00
737,81	11172,49
737,99	11191,33
738,18	11096,30
738,36	11285,67
738,54	11102,72
738,73	11271,34
738,91	11306,02
739,09	11409,10
739,28	11289,63
739,46	11263,15
739,64	11442,14
739,82	11424,80
740,01	11280,21
740,19	11579,62
740,37	11281,58
740,56	11200,48
740,74	11137,13
740,92	11181,09
741,11	11168,12
741,29	11264,78
741,47	11364,45
741,65	11193,79
741,84	11230,92
742,02	11425,89
742,20	11345,61
742,39	11308,61
742,57	11322,95
742,75	11311,20
742,93	11314,21
743,12	11279,12
743,30	11162,52
743,48	11263,96
743,67	11136,44
743,85	11115,42
744,03	11244,44
744,21	11049,88
744,40	10897,65
744,58	11206,76
744,76	11072,27
744,94	11064,08
745,13	11089,89
745,31	11132,08
745,49	10981,62
745,67	10936,43
745,86	11047,97
746,04	11062,44
746,22	10997,87
746,40	10868,84
746,59	10855,74
746,77	11002,64
746,95	10896,83
747,13	10903,39
747,32	10673,19
747,50	10852,46
747,68	10707,60
747,86	10700,50
748,05	10813,55
748,23	10740,09
748,41	10596,33
748,59	10513,04
748,77	10433,58
748,96	10376,24
749,14	10326,13
749,32	10550,59
749,50	10468,67
749,69	10428,94
749,87	10252,68
750,05	10261,96
750,23	10177,04
750,41	10032,59
750,60	10235,47
750,78	10082,83
750,96	10130,21
751,14	10152,19
751,32	10085,15
751,51	10071,09
751,69	10031,63
751,87	9873,26
752,05	10049,93
752,23	10015,39
752,42	9892,78
752,60	10055,94
752,78	9887,05
752,96	9980,71
753,14	9966,92
753,33	9989,99
753,51	9978,11
753,69	9926,09
753,87	9898,52
754,05	10053,75
754,23	9733,86
754,42	9866,16
754,60	9798,71
754,78	10006,10
754,96	9702,05
755,14	9848,55
755,32	9746,28
755,51	9812,50
755,69	9762,94
755,87	9821,38
756,05	9713,79
756,23	9790,79
756,41	9823,15
756,60	9870,25
756,78	9875,44
756,96	9872,17
757,14	9881,31
757,32	9816,60
757,50	9909,30
757,68	9679,79
757,87	9692,49
758,05	9552,55
758,23	9117,56
758,41	8637,92
758,59	7583,90
758,77	6560,33
758,95	5352,30
759,14	4188,64
759,32	3324,81
759,50	2532,11
759,68	1988,58
759,86	1684,80
760,04	1478,36
760,22	1433,17
760,40	1745,28
760,59	1864,74
760,77	2360,08
760,95	2802,71
761,13	3170,67
761,31	3459,70
761,49	3379,15
761,67	3351,57
761,85	2823,60
762,03	2588,36
762,22	2519,14
762,40	2414,83
762,58	2277,07
762,76	2360,49
762,94	2524,19
763,12	2663,32
763,30	2880,40
763,48	3139,67
763,66	3273,75
763,84	3557,46
764,02	3824,10
764,21	4066,99
764,39	4550,04
764,57	4732,72
764,75	5075,69
764,93	5340,28
765,11	5645,29
765,29	6038,64
765,47	6192,78
765,65	6678,56
765,83	6909,85
766,01	7292,95
766,19	7635,65
766,37	7963,05
766,56	8161,16
766,74	8377,56
766,92	8532,38
767,10	8840,26
767,28	8911,26
767,46	9095,30
767,64	9169,85
767,82	9288,08
768,00	9249,04
768,18	9385,02
768,36	9511,86
768,54	9529,88
768,72	9537,53
768,90	9491,24
769,08	9439,36
769,26	9485,51
769,44	9578,90
769,62	9797,35
769,80	9795,43
769,98	9782,46
770,16	9631,73
770,34	9643,75
770,52	9593,50
770,71	9602,65
770,89	9570,98
771,07	9673,10
771,25	9504,21
771,43	9644,84
771,61	9465,17
771,79	9363,86
771,97	9486,60
772,15	9384,20
772,33	9351,30
772,51	9443,18
772,69	9272,11
772,87	9414,79
773,05	9192,38
773,23	9476,22
773,41	9112,91
773,59	9279,07
773,77	9045,06
773,95	9033,59
774,13	8916,86
774,31	9015,43
774,49	8842,45
774,67	8892,69
774,85	8812,00
775,03	8861,42
775,21	8741,41
775,39	8892,42
775,57	8668,23
775,75	8862,24
775,93	8687,89
776,10	8590,27
776,28	8521,46
776,46	8496,48
776,64	8381,93
776,82	8406,64
777,00	9705,19
777,18	8283,21
777,36	8301,10
777,54	8344,79
777,72	8019,98
777,90	8206,35
778,08	8112,69
778,26	8052,34
778,44	8061,62
778,62	8106,68
778,80	8095,48
778,98	8054,39
779,16	7873,35
779,34	7987,49
779,52	7735,04
779,70	7981,75
779,88	7672,51
780,05	7678,93
780,23	7626,36
780,41	7721,39
780,59	7652,30
780,77	7788,15
780,95	7646,71
781,13	7647,66
781,31	7571,89
781,49	7628,55
781,67	7541,03
781,85	7494,47
782,03	7407,37
782,21	7390,71
782,39	7394,12
782,56	7300,60
782,74	7168,44
782,92	7162,16
783,10	7278,62
783,28	7060,99
783,46	7105,50
783,64	7245,85
783,82	7082,15
784,00	7076,41
784,18	7002,69
784,35	6972,79
784,53	6964,32
784,71	6894,15
784,89	6957,63
785,07	6841,03
785,25	6908,89
785,43	6951,63
785,61	6629,82
785,79	6713,38
785,96	6615,49
786,14	6571,66
786,32	6627,64
786,50	6560,46
786,68	6352,39
786,86	6510,63
787,04	6405,36
787,22	6359,49
787,39	6221,59
787,57	6303,37
787,75	6202,21
787,93	6128,75
788,11	5923,82
788,29	6068,13
788,47	5954,40
788,65	5915,08
788,82	5832,75
789,00	5903,61
789,18	5854,46
789,36	5773,77
789,54	5846,40
789,72	5818,55
789,89	5759,16
790,07	5792,07
790,25	5797,94
790,43	5667,82
790,61	5700,04
790,79	5551,63
790,96	5538,80
791,14	5716,43
791,32	5529,11
791,50	5654,44
791,68	5543,44
791,86	5567,33
792,03	5401,31
792,21	5493,20
792,39	5373,32
792,57	5428,76
792,75	5384,93
792,93	5449,24
793,10	5461,39
793,28	5513,00
793,46	5281,30
793,64	5528,83
793,82	5444,59
793,99	5476,81
794,17	5287,31
794,35	5370,46
794,53	5369,09
794,71	5261,10
794,88	5194,88
795,06	5132,21
795,24	4981,89
795,42	5017,66
795,60	5045,10
795,77	4966,73
795,95	4982,84
796,13	4999,36
796,31	5052,20
796,49	5250,99
796,66	5110,09
796,84	5050,84
797,02	5184,50
797,20	5077,32
797,37	5095,07
797,55	4971,24
797,73	5014,11
797,91	5009,88
798,08	5012,74
798,26	5041,01
798,44	4934,92
798,62	4839,08
798,80	4853,82
798,97	4859,83
799,15	4651,07
799,33	4778,73
799,51	4789,11
799,68	4762,35
799,86	4768,22
800,04	4578,58
800,22	4614,76
800,39	4660,22
800,57	4674,97
800,75	4588,13
800,93	4597,28
801,10	4618,03
801,28	4756,07
801,46	4523,96
801,63	4498,16
801,81	4533,93
801,99	4292,27
802,17	4400,40
802,34	4421,43
802,52	4382,11
802,70	4464,84
802,88	4459,38
803,05	4446,69
803,23	4386,48
803,41	4323,94
803,58	4343,88
803,76	4332,14
803,94	4416,24
804,12	4390,16
804,29	4311,79
804,47	4361,49
804,65	4405,59
804,82	4395,35
805,00	4293,09
805,18	4379,79
805,35	4400,95
805,53	4295,82
805,71	4333,23
805,89	4384,56
806,06	4346,88
806,24	4164,89
806,42	4341,42
806,59	4223,32
806,77	4387,16
806,95	4250,49
807,12	4255,27
807,30	4227,69
807,48	4140,04
807,65	4038,59
807,83	4103,45
808,01	4026,31
808,18	4046,92
808,36	4021,80
808,54	3969,65
808,71	4013,47
808,89	3892,78
809,07	3840,35
809,24	3959,82
809,42	3912,99
809,60	3782,73
809,77	3824,65
809,95	3778,91
810,13	3793,66
810,30	3656,03
810,48	3803,76
810,66	3672,28
810,83	3691,40
811,01	3576,57
811,18	3515,82
811,36	3468,71
811,54	3504,48
811,71	3531,24
811,89	3473,36
812,07	3343,79
812,24	3496,97
812,42	3179,27
812,59	3081,65
812,77	3112,23
812,95	3041,37
813,12	3028,81
813,30	2919,58
813,48	2970,92
813,65	2903,34
813,83	2898,83
814,00	2813,50
814,18	2833,16
814,36	2727,08
814,53	2676,01
814,71	2664,68
814,88	2679,84
815,06	2549,45
815,24	2617,44
815,41	2407,46
815,59	2508,08
815,76	2334,27
815,94	2441,45
816,12	2347,11
816,29	2521,60
816,47	2535,25
816,64	2582,08
816,82	2465,07
817,00	2575,66
817,17	2392,85
817,35	2460,43
817,52	2346,97
817,70	2485,82
817,87	2447,32
818,05	2560,64
818,23	2412,23
818,40	2562,15
818,58	2453,60
818,75	2362,95
818,93	2425,07
819,10	2447,87
819,28	2434,76
819,46	2583,99
819,63	2621,40
819,81	2845,58
819,98	2722,57
820,16	2834,53
820,33	2759,98
820,51	2833,43
820,68	2747,83
820,86	2712,88
821,03	2727,89
821,21	2698,81
821,39	2647,34
821,56	2479,13
821,74	2312,02
821,91	2125,52
822,09	2048,92
822,26	2027,49
822,44	1900,51
822,61	1922,63
822,79	2119,10
822,96	2215,22
823,14	2276,93
823,31	2275,57
823,49	2466,71
823,66	2545,63
823,84	2516,27
824,01	2525,28
824,19	2447,46
824,36	2641,33
824,54	2578,67
824,71	2613,62
824,89	2547,26
825,06	2645,70
825,24	2466,98
825,41	2484,60
825,59	2494,70
825,76	2609,93
825,94	2474,49
826,11	2642,15
826,29	2484,73
826,46	2486,64
826,64	2444,05
826,81	2342,19
826,99	2266,83
827,16	2179,04
827,34	2089,75
827,51	2259,46
827,69	2336,60
827,86	2285,26
828,04	2229,01
828,21	2166,20
828,39	2290,45
828,56	2243,89
828,74	2280,07
828,91	2252,49
829,09	2433,26
829,26	2294,13
829,43	2259,59
829,61	2236,79
829,78	2250,04
829,96	2325,54
830,13	2252,90
830,31	2332,23
830,48	2270,11
830,66	2212,76
830,83	2135,08
831,01	2174,40
831,18	2216,45
831,35	2193,92
831,53	2191,46
831,70	2316,94
831,88	2416,06
832,05	2209,62
832,23	2125,25
832,40	2280,07
832,57	2256,18
832,75	2172,49
832,92	2087,43
833,10	2317,75
833,27	2268,88
833,45	2222,73
833,62	2183,27
833,79	2239,11
833,97	2283,76
834,14	2187,78
834,32	2253,31
834,49	2195,97
834,66	2216,72
834,84	2214,54
835,01	2252,77
835,19	2111,46
835,36	2160,88
835,53	2310,38
835,71	2310,65
835,88	2267,37
836,06	2297,68
836,23	2344,38
836,40	2152,28
836,58	2229,83
836,75	2266,56
836,93	2247,03
837,10	2190,51
837,27	2249,76
837,45	2157,19
837,62	2184,23
837,79	2183,13
837,97	2252,63
838,14	2145,59
838,32	2167,84
838,49	2144,77
838,66	2244,30
838,84	2249,35
839,01	2248,94
839,18	2226,28
839,36	2121,97
839,53	2154,60
839,70	2159,38
839,88	2067,08
840,05	2223,00
840,23	2140,95
840,40	2098,08
840,57	2105,86
840,75	2164,70
840,92	2163,06
841,09	2147,91
841,27	2155,56
841,44	2088,38
841,61	2107,50
841,79	2065,99
841,96	2056,84
842,13	2135,62
842,31	2107,09
842,48	2066,40
842,65	2040,05
842,83	1974,11
843,00	2078,42
843,17	1939,97
843,35	2046,88
843,52	2086,47
843,69	2072,54
843,86	2018,75
844,04	1942,98
844,21	2012,06
844,38	1997,59
844,56	2068,86
844,73	2022,44
844,90	2058,89
845,08	2027,22
845,25	1929,60
845,42	1999,64
845,60	1987,76
845,77	1926,18
845,94	1964,96
846,11	1917,58
846,29	2056,43
846,46	1963,73
846,63	1834,02
846,81	2031,18
846,98	1909,53
847,15	1889,59
847,32	1932,05
847,50	1843,44
847,67	1850,00
847,84	1880,99
848,01	1946,80
848,19	1860,65
848,36	1835,80
848,53	1714,29
848,71	1840,44
848,88	1709,10
849,05	1688,62
849,22	1739,41
849,40	1693,53
849,57	1757,70
849,74	1706,64
849,91	1713,47
850,09	1635,92
850,26	1747,74
850,43	1760,98
850,60	1696,95
850,78	1727,80
850,95	1751,70
851,12	1664,73
851,29	1697,63
851,47	1819,69
851,64	1590,18
851,81	1724,39
851,98	1676,19
852,15	1729,58
852,33	1613,80
852,50	1638,37
852,67	1743,37
852,84	1633,87
853,02	1580,62
853,19	1631,82
853,36	1502,12
853,53	1410,78
853,70	1597,28
853,88	1486,14
854,05	1464,98
854,22	1467,30
854,39	1574,21
854,56	1552,91
854,74	1455,42
854,91	1640,83
855,08	1505,53
855,25	1567,24
855,42	1565,19
855,60	1488,05
855,77	1681,93
855,94	1590,59
856,11	1592,23
856,28	1563,01
856,46	1609,16
856,63	1474,26
856,80	1448,19
856,97	1689,85
857,14	1629,09
857,31	1534,34
857,49	1547,04
857,66	1597,28
857,83	1480,54
858,00	1475,36
858,17	1513,45
858,34	1502,80
858,52	1465,80
858,69	1509,76
858,86	1495,02
859,03	1485,19
859,20	1547,99
859,37	1549,08
859,55	1411,60
859,72	1606,70
859,89	1462,80
860,06	1563,28
860,23	1523,28
860,40	1373,78
860,57	1480,95
860,75	1362,17
860,92	1505,53
861,09	1468,67
861,26	1453,65
861,43	1419,79
861,60	1352,75
861,77	1390,02
861,95	1287,49
862,12	1382,24
862,29	1342,51
862,46	1428,66
862,63	1385,66
862,80	1507,71
862,97	1433,85
863,14	1309,20
863,31	1364,08
863,49	1491,60
863,66	1454,19
863,83	1340,46
864,00	1470,58
864,17	1281,48
864,34	1364,36
864,51	1189,19
864,68	1371,59
864,85	1299,09
865,02	1266,87
865,20	1318,21
865,37	1210,90
865,54	1296,64
865,71	1181,00
865,88	1112,05
866,05	1123,65
866,22	1165,02
866,39	1158,19
866,56	1197,52
866,73	1169,12
866,90	1286,81
867,07	1238,07
867,25	1207,76
867,42	1268,92
867,59	1198,61
867,76	1310,43
867,93	1195,19
868,10	1198,20
868,27	1125,29
868,44	1234,79
868,61	1215,67
868,78	1211,17
868,95	1160,79
869,12	1255,68
869,29	1225,50
869,46	1204,89
869,63	1197,65
869,80	1087,47
869,97	1201,61
870,14	1118,46
870,32	1167,62
870,49	1109,04
870,66	1223,18
870,83	1273,84
871,00	1120,24
871,17	1053,20
871,34	1226,73
871,51	1152,19
871,68	1141,81
871,85	1154,92
872,02	1213,49
872,19	1119,01
872,36	1036,41
872,53	1070,00
872,70	1060,71
872,87	1071,36
873,04	974,29
873,21	1002,55
873,38	994,36
873,55	1080,51
873,72	1146,32
873,89	1030,67
874,06	1012,38
874,23	1023,71
874,40	1070,95
874,57	989,31
874,74	1128,57
874,91	914,62
875,08	1053,88
875,25	1035,45
875,42	1077,91
875,59	1077,78
875,76	995,59
875,93	996,27
876,10	1112,32
876,27	942,75
876,44	1185,36
876,61	1036,68
876,78	938,79
876,95	1005,69
877,12	902,61
877,29	973,47
877,46	1029,99
877,62	939,61
877,79	1029,31
877,96	1005,01
878,13	1013,88
878,30	829,15
878,47	1059,48
878,64	985,35
878,81	905,61
878,98	973,74
879,15	1046,79
879,32	955,72
879,49	939,61
879,66	962,95
879,83	859,74
880,00	1004,60
880,17	818,37
880,34	917,35
880,51	848,81
880,67	982,34
880,84	852,09
881,01	811,00
881,18	921,72
881,35	816,05
881,52	1017,02
881,69	900,42
881,86	1028,08
882,03	873,25
882,20	895,64
882,37	862,06
882,54	862,74
882,70	835,57
882,87	875,30
883,04	905,34
883,21	887,45
883,38	799,80
883,55	834,89
883,72	832,43
883,89	786,15
884,06	784,65
884,23	774,41
884,39	735,77
884,56	897,69
884,73	828,74
884,90	841,85
885,07	859,46
885,24	816,18
885,41	826,01
885,58	823,42
885,74	768,53
885,91	865,61
886,08	786,15
886,25	689,76
886,42	722,39
886,59	769,90
886,76	726,07
886,93	693,03
887,09	866,15
887,26	994,22
887,43	786,69
887,60	809,36
887,77	789,56
887,94	844,31
888,10	898,51
888,27	851,96
888,44	758,16
888,61	583,53
888,78	770,45
888,95	725,12
889,12	684,57
889,28	730,99
889,45	635,55
889,62	725,39
889,79	715,70
889,96	740,68
890,13	736,31
890,29	664,50
890,46	744,10
890,63	815,09
890,80	723,62
890,97	680,74
891,13	691,67
891,30	801,98
891,47	865,74
891,64	638,28
891,81	576,98
891,98	712,83
892,14	645,11
892,31	645,38
892,48	621,63
892,65	678,83
892,82	676,65
892,98	515,82
893,15	721,70
893,32	710,78
>>>>>End Processed Spectral Data<<<<<
