SpectraSuite Datei
++++++++++++++++++++++++++++++++++++
Datum: Mon Nov 28 14:25:32 CET 2016
Benutzer: Admin
Dark-Spektrum vorhanden: Ja
Referenz-Spektrum vorhanden: Nein
Zahl der probierten Teilspektren: 1
Spektrometer: USB4F05832
Integrationszeit (usec): 20000 (USB4F05832)
Spektren Durchschnitt berechnet: 100 (USB4F05832)
Boxcar Glättung: 0 (USB4F05832)
Dunkelstromkorrektur: Nein (USB4F05832)
Puls/Lampe aktiviert: Nein (USB4F05832)
Correct for Detector Non-linearity: Nein (USB4F05832)
Streulichtkorrektur: Nein (USB4F05832)
Anzahl Pixel in verarbeitetem Spektrum: 3648
>>>>>Begin Processed Spectral Data<<<<<
177,54	-2,74
177,75	-2,74
177,97	-2,74
178,19	-3,85
178,41	-1,64
178,63	6,35
178,85	4,44
179,07	-5,37
179,29	4,14
179,51	5,08
179,73	-0,78
179,95	2,74
180,17	-5,39
180,39	1,04
180,61	-0,66
180,83	2,01
181,05	-0,51
181,27	-4,30
181,49	21,03
181,71	30,76
181,92	29,08
182,14	28,06
182,36	34,61
182,58	31,07
182,80	20,56
183,02	28,75
183,24	25,64
183,46	26,38
183,68	27,42
183,90	26,05
184,12	18,12
184,34	33,05
184,56	30,70
184,78	31,50
185,00	30,47
185,21	25,80
185,43	29,92
185,65	27,28
185,87	22,61
186,09	27,77
186,31	29,96
186,53	31,46
186,75	27,24
186,97	34,24
187,19	43,15
187,41	29,12
187,63	31,64
187,84	37,72
188,06	23,29
188,28	26,66
188,50	25,21
188,72	36,09
188,94	31,60
189,16	37,31
189,38	25,56
189,60	26,87
189,82	27,61
190,03	32,30
190,25	31,93
190,47	27,89
190,69	33,44
190,91	35,76
191,13	29,55
191,35	32,46
191,57	25,13
191,79	33,75
192,01	23,16
192,22	28,71
192,44	32,07
192,66	29,86
192,88	31,50
193,10	31,83
193,32	32,09
193,54	42,27
193,76	21,81
193,98	31,19
194,19	41,47
194,41	22,92
194,63	27,03
194,85	36,43
195,07	30,41
195,29	22,38
195,51	41,02
195,73	32,73
195,94	40,73
196,16	29,63
196,38	38,13
196,60	26,07
196,82	32,64
197,04	40,92
197,26	29,04
197,48	32,03
197,69	33,87
197,91	38,01
198,13	37,09
198,35	15,93
198,57	33,10
198,79	24,47
199,01	32,07
199,22	26,52
199,44	23,76
199,66	32,71
199,88	33,93
200,10	29,84
200,32	30,94
200,54	35,98
200,75	32,85
200,97	32,85
201,19	34,61
201,41	26,66
201,63	27,42
201,85	29,37
202,06	32,24
202,28	36,43
202,50	26,36
202,72	40,37
202,94	35,02
203,16	31,56
203,38	30,37
203,59	34,16
203,81	26,71
204,03	26,54
204,25	37,44
204,47	39,91
204,69	30,64
204,90	29,90
205,12	19,97
205,34	37,68
205,56	35,10
205,78	38,34
206,00	35,00
206,21	38,03
206,43	37,81
206,65	22,22
206,87	36,54
207,09	24,82
207,30	36,33
207,52	36,72
207,74	32,60
207,96	32,24
208,18	35,63
208,40	26,21
208,61	38,54
208,83	16,92
209,05	34,90
209,27	22,61
209,49	31,11
209,70	28,12
209,92	32,99
210,14	33,73
210,36	31,11
210,58	41,18
210,79	44,44
211,01	33,16
211,23	31,03
211,45	38,71
211,67	34,22
211,88	16,26
212,10	40,55
212,32	43,70
212,54	37,64
212,76	30,02
212,97	35,76
213,19	36,54
213,41	37,03
213,63	25,80
213,85	29,51
214,06	31,85
214,28	31,07
214,50	34,94
214,72	36,27
214,94	37,97
215,15	35,92
215,37	34,20
215,59	34,00
215,81	35,51
216,02	27,32
216,24	40,30
216,46	38,50
216,68	31,97
216,90	36,72
217,11	36,27
217,33	33,05
217,55	43,89
217,77	46,08
217,98	36,02
218,20	28,02
218,42	25,97
218,64	46,73
218,85	39,14
219,07	32,30
219,29	29,59
219,51	34,55
219,73	41,90
219,94	35,02
220,16	35,06
220,38	35,00
220,60	32,32
220,81	40,69
221,03	40,57
221,25	30,29
221,47	31,99
221,68	43,79
221,90	33,40
222,12	36,29
222,34	29,49
222,55	31,95
222,77	33,20
222,99	38,95
223,21	40,90
223,42	35,31
223,64	39,73
223,86	35,20
224,08	28,92
224,29	38,09
224,51	39,03
224,73	38,17
224,94	38,50
225,16	40,53
225,38	36,00
225,60	40,88
225,81	34,82
226,03	35,74
226,25	36,78
226,47	43,01
226,68	37,21
226,90	33,05
227,12	35,39
227,33	41,10
227,55	36,11
227,77	32,58
227,99	42,88
228,20	42,56
228,42	33,55
228,64	32,17
228,86	29,80
229,07	37,31
229,29	40,71
229,51	42,07
229,72	29,76
229,94	29,12
230,16	43,09
230,38	37,68
230,59	40,30
230,81	40,71
231,03	39,83
231,24	44,32
231,46	34,14
231,68	47,68
231,89	38,91
232,11	43,74
232,33	35,74
232,55	37,35
232,76	42,41
232,98	41,29
233,20	42,99
233,41	38,54
233,63	37,38
233,85	36,11
234,06	51,01
234,28	36,27
234,50	23,39
234,71	40,16
234,93	36,43
235,15	38,07
235,37	51,75
235,58	39,55
235,80	41,96
236,02	41,59
236,23	29,98
236,45	44,99
236,67	39,40
236,88	40,02
237,10	45,61
237,32	42,43
237,53	33,79
237,75	33,42
237,97	43,64
238,18	44,15
238,40	41,90
238,62	38,17
238,83	47,02
239,05	39,18
239,27	41,02
239,48	36,90
239,70	45,26
239,92	40,82
240,13	44,79
240,35	35,02
240,57	39,61
240,78	40,32
241,00	42,33
241,22	39,79
241,43	38,95
241,65	36,99
241,87	56,01
242,08	44,01
242,30	36,31
242,52	31,27
242,73	37,85
242,95	38,95
243,16	46,82
243,38	35,33
243,60	49,46
243,81	40,57
244,03	37,91
244,25	29,72
244,46	41,14
244,68	39,12
244,90	46,33
245,11	47,12
245,33	38,54
245,55	41,80
245,76	30,60
245,98	44,07
246,19	28,71
246,41	44,28
246,63	42,11
246,84	33,48
247,06	47,96
247,28	51,65
247,49	42,66
247,71	40,78
247,92	36,66
248,14	44,95
248,36	52,20
248,57	54,31
248,79	43,52
249,01	43,85
249,22	37,07
249,44	51,77
249,65	34,82
249,87	43,15
250,09	40,73
250,30	39,18
250,52	45,38
250,73	33,57
250,95	44,52
251,17	40,34
251,38	40,41
251,60	39,83
251,81	39,12
252,03	49,17
252,25	49,25
252,46	43,60
252,68	49,91
252,89	53,17
253,11	42,29
253,33	43,50
253,54	47,88
253,76	49,79
253,97	41,96
254,19	40,80
254,41	54,68
254,62	40,26
254,84	41,29
255,05	56,99
255,27	53,72
255,49	45,63
255,70	56,71
255,92	46,65
256,13	38,32
256,35	48,54
256,56	40,06
256,78	40,41
257,00	37,85
257,21	41,08
257,43	35,41
257,64	43,38
257,86	47,68
258,08	52,28
258,29	50,15
258,51	44,89
258,72	44,26
258,94	44,91
259,15	49,93
259,37	45,51
259,59	37,89
259,80	42,60
260,02	48,64
260,23	40,16
260,45	46,08
260,66	50,28
260,88	51,12
261,09	53,90
261,31	44,13
261,53	49,50
261,74	55,19
261,96	45,26
262,17	48,05
262,39	53,47
262,60	48,05
262,82	51,94
263,03	56,91
263,25	44,48
263,46	39,30
263,68	51,16
263,90	48,99
264,11	41,64
264,33	36,90
264,54	43,07
264,76	49,64
264,97	47,12
265,19	42,47
265,40	45,16
265,62	45,34
265,83	44,89
266,05	52,94
266,26	43,81
266,48	45,53
266,70	48,70
266,91	52,76
267,13	54,41
267,34	41,49
267,56	51,71
267,77	55,34
267,99	50,63
268,20	52,14
268,42	56,42
268,63	48,56
268,85	44,26
269,06	51,08
269,28	51,24
269,49	55,32
269,71	52,00
269,92	55,68
270,14	54,62
270,35	47,92
270,57	46,98
270,78	43,79
271,00	52,26
271,21	41,86
271,43	55,11
271,64	54,09
271,86	54,03
272,07	50,63
272,29	49,56
272,50	45,14
272,72	52,55
272,93	60,15
273,15	58,00
273,36	59,58
273,58	52,20
273,79	56,20
274,01	59,15
274,22	49,29
274,44	58,08
274,65	51,30
274,87	58,55
275,08	52,63
275,30	56,65
275,51	60,64
275,73	48,35
275,94	46,18
276,16	45,08
276,37	46,00
276,59	52,63
276,80	42,93
277,02	51,16
277,23	46,57
277,45	57,94
277,66	51,61
277,88	57,14
278,09	52,37
278,30	54,91
278,52	59,58
278,73	56,87
278,95	60,68
279,16	56,89
279,38	51,18
279,59	57,83
279,81	56,69
280,02	55,99
280,24	60,35
280,45	46,14
280,67	62,30
280,88	52,69
281,09	53,92
281,31	57,40
281,52	58,16
281,74	57,98
281,95	57,63
282,17	66,48
282,38	52,59
282,60	61,99
282,81	67,15
283,02	55,62
283,24	55,30
283,45	56,87
283,67	62,71
283,88	55,97
284,10	60,31
284,31	59,23
284,53	65,49
284,74	52,98
284,95	63,88
285,17	63,41
285,38	67,01
285,60	56,85
285,81	60,25
286,03	70,12
286,24	61,03
286,45	54,91
286,67	69,14
286,88	59,88
287,10	61,71
287,31	66,27
287,53	52,92
287,74	68,32
287,95	68,67
288,17	62,83
288,38	60,89
288,60	57,88
288,81	62,98
289,02	64,06
289,24	55,99
289,45	66,60
289,67	66,31
289,88	64,84
290,10	69,30
290,31	53,33
290,52	59,53
290,74	55,15
290,95	62,98
291,17	66,35
291,38	63,32
291,59	75,43
291,81	77,27
292,02	71,70
292,24	69,86
292,45	70,68
292,66	70,72
292,88	63,75
293,09	70,86
293,31	61,21
293,52	70,35
293,73	65,39
293,95	65,41
294,16	64,24
294,37	65,64
294,59	72,48
294,80	71,00
295,02	63,41
295,23	68,48
295,44	64,02
295,66	69,24
295,87	63,92
296,09	75,59
296,30	68,18
296,51	75,84
296,73	73,79
296,94	74,87
297,15	77,60
297,37	70,76
297,58	65,29
297,79	68,55
298,01	86,14
298,22	74,01
298,44	77,58
298,65	77,82
298,86	77,82
299,08	73,03
299,29	83,70
299,50	83,07
299,72	85,46
299,93	75,43
300,14	81,32
300,36	80,59
300,57	78,36
300,79	83,93
301,00	80,38
301,21	84,97
301,43	77,82
301,64	78,81
301,85	81,35
302,07	88,23
302,28	90,32
302,49	89,95
302,71	87,57
302,92	89,39
303,13	85,46
303,35	94,45
303,56	103,38
303,77	106,45
303,99	100,45
304,20	106,99
304,41	102,09
304,63	101,60
304,84	112,90
305,05	109,05
305,27	109,26
305,48	113,74
305,69	124,91
305,91	125,42
306,12	127,30
306,33	136,56
306,55	129,92
306,76	157,47
306,97	150,18
307,19	164,66
307,40	178,93
307,61	187,49
307,82	178,89
308,04	195,25
308,25	190,03
308,46	202,01
308,68	203,55
308,89	227,00
309,10	234,14
309,32	252,66
309,53	273,85
309,74	300,05
309,96	320,67
310,17	351,98
310,38	393,66
310,59	403,88
310,81	433,23
311,02	456,49
311,23	471,01
311,45	496,16
311,66	520,10
311,87	553,26
312,09	589,67
312,30	622,68
312,51	649,25
312,72	687,87
312,94	707,47
313,15	740,44
313,36	780,60
313,58	809,30
313,79	867,85
314,00	912,17
314,21	931,21
314,43	977,56
314,64	1012,95
314,85	1033,55
315,06	1013,13
315,28	1049,85
315,49	1076,76
315,70	1145,47
315,92	1254,71
316,13	1335,03
316,34	1441,91
316,55	1523,67
316,77	1599,01
316,98	1605,67
317,19	1639,19
317,40	1628,93
317,62	1680,46
317,83	1738,01
318,04	1786,38
318,25	1934,86
318,47	1965,87
318,68	2043,22
318,89	2111,91
319,11	2110,10
319,32	2184,26
319,53	2231,47
319,74	2451,91
319,96	2505,85
320,17	2523,32
320,38	2719,66
320,59	2639,46
320,81	2647,20
321,02	2569,71
321,23	2706,31
321,44	2604,57
321,65	2639,95
321,87	2641,12
322,08	2601,31
322,29	2666,78
322,50	2710,28
322,72	2888,99
322,93	3061,90
323,14	3294,32
323,35	3396,13
323,57	3570,98
323,78	3643,23
323,99	3731,11
324,20	3720,69
324,41	3828,92
324,63	3908,59
324,84	4067,78
325,05	4343,68
325,26	4748,13
325,48	4854,55
325,69	5235,82
325,90	5387,39
326,11	5492,53
326,32	5467,34
326,54	5437,25
326,75	5303,52
326,96	5171,84
327,17	4964,01
327,39	4859,44
327,60	4950,43
327,81	4883,55
328,02	5045,56
328,23	5416,14
328,45	5825,30
328,66	6123,04
328,87	6458,09
329,08	6652,97
329,29	6898,99
329,51	7074,30
329,72	6973,56
329,93	6753,57
330,14	6609,80
330,35	6422,63
330,56	6440,68
330,78	6341,66
330,99	6490,36
331,20	6634,44
331,41	6746,89
331,62	6778,14
331,84	7169,37
332,05	6972,49
332,26	7152,02
332,47	6990,84
332,68	7115,40
332,90	7262,36
333,11	6987,81
333,32	7207,72
333,53	7135,90
333,74	7103,48
333,95	7130,33
334,17	7220,15
334,38	7367,44
334,59	7471,22
334,80	7467,10
335,01	7096,40
335,22	7200,88
335,44	7019,97
335,65	6706,36
335,86	6737,78
336,07	6388,43
336,28	6476,52
336,49	6448,87
336,71	6522,15
336,92	6719,65
337,13	6906,08
337,34	6958,71
337,55	7396,48
337,76	7421,86
337,97	7471,24
338,19	7701,73
338,40	7819,39
338,61	7947,96
338,82	7971,86
339,03	8270,58
339,24	8404,68
339,45	8383,97
339,67	8592,40
339,88	8616,83
340,09	8582,05
340,30	8198,02
340,51	8177,85
340,72	8344,33
340,93	8287,80
341,15	8463,01
341,36	8500,52
341,57	8694,94
341,78	8822,83
341,99	8780,17
342,20	8943,15
342,41	9005,66
342,62	8902,81
342,84	8612,81
343,05	8576,01
343,26	8129,92
343,47	7970,90
343,68	7639,46
343,89	7496,08
344,10	7759,71
344,31	7903,40
344,53	8395,12
344,74	8577,84
344,95	8678,68
345,16	8876,00
345,37	8804,01
345,58	8852,86
345,79	9074,98
346,00	9075,86
346,21	9255,86
346,42	9378,43
346,64	9112,95
346,85	9191,84
347,06	9010,02
347,27	9021,30
347,48	9225,91
347,69	8975,76
347,90	9103,75
348,11	9306,52
348,32	9074,51
348,53	9109,00
348,75	9418,38
348,96	9283,95
349,17	9874,85
349,38	9943,61
349,59	10237,30
349,80	10709,73
350,01	10532,89
350,22	10900,97
350,43	10445,93
350,64	10663,94
350,85	10419,49
351,06	10235,60
351,28	10211,54
351,49	10088,48
351,70	10287,19
351,91	10008,87
352,12	10132,94
352,33	9840,24
352,54	10730,13
352,75	10753,76
352,96	11052,68
353,17	11583,80
353,38	11475,22
353,59	11747,93
353,80	12035,89
354,01	11928,11
354,22	11806,05
354,44	11879,96
354,65	11695,54
354,86	11624,05
355,07	11350,87
355,28	11192,66
355,49	11065,85
355,70	10679,28
355,91	10403,76
356,12	9965,58
356,33	9678,91
356,54	9399,91
356,75	9226,28
356,96	9199,46
357,17	8913,35
357,38	8850,54
357,59	8312,09
357,80	8408,82
358,01	8659,63
358,22	8745,32
358,43	9344,08
358,64	10006,01
358,85	10813,97
359,07	11115,82
359,28	11754,19
359,49	11736,54
359,70	11637,07
359,91	11585,87
360,12	11005,58
360,33	10696,42
360,54	10718,43
360,75	10587,59
360,96	10653,55
361,17	10398,27
361,38	10818,27
361,59	11385,56
361,80	11723,72
362,01	11791,49
362,22	12045,68
362,43	12304,24
362,64	12229,45
362,85	12320,03
363,06	12149,14
363,27	12600,03
363,48	12560,72
363,69	12725,28
363,90	12696,79
364,11	12951,44
364,32	12826,24
364,53	13303,15
364,74	13797,04
364,95	14517,25
365,16	14725,12
365,37	15362,74
365,58	15470,93
365,79	15700,47
366,00	15760,92
366,21	15614,25
366,42	15273,85
366,63	15214,22
366,84	14892,66
367,05	14687,56
367,26	14646,95
367,47	14130,37
367,68	13883,24
367,89	13778,20
368,10	13140,36
368,31	12498,94
368,52	13269,92
368,73	14544,53
368,94	14630,05
369,15	14531,46
369,36	15137,97
369,57	15244,94
369,78	14948,19
369,99	15199,66
370,20	15049,99
370,40	15039,73
370,61	15470,29
370,82	15608,47
371,03	15626,88
371,24	15482,05
371,45	15273,94
371,66	14496,63
371,87	14105,69
372,08	14609,33
372,29	14155,72
372,50	13410,80
372,71	13536,46
372,92	13134,38
373,13	12751,60
373,34	12727,18
373,55	12881,70
373,76	12906,50
373,97	12563,65
374,18	12932,66
374,39	13149,29
374,60	13708,61
374,81	14203,28
375,01	14457,16
375,22	15129,90
375,43	15050,65
375,64	15569,35
375,85	15043,31
376,06	15484,28
376,27	15843,31
376,48	16555,47
376,69	16431,77
376,90	17489,30
377,11	18489,90
377,32	18302,57
377,53	18987,74
377,74	19101,55
377,94	18653,23
378,15	18315,87
378,36	17240,11
378,57	17142,17
378,78	16163,72
378,99	16073,28
379,20	16004,26
379,41	16118,89
379,62	16431,18
379,83	16822,77
380,04	17432,66
380,25	17746,20
380,45	17162,18
380,66	16991,83
380,87	16211,99
381,08	15367,04
381,29	14743,25
381,50	13537,13
381,71	13197,11
381,92	12779,73
382,13	12066,51
382,34	11045,76
382,55	10875,78
382,75	10967,32
382,96	10818,11
383,17	11295,86
383,38	11909,61
383,59	12514,44
383,80	13347,51
384,01	14156,48
384,22	15299,23
384,43	15523,21
384,63	15013,43
384,84	15500,30
385,05	14912,02
385,26	14917,83
385,47	15219,50
385,68	15258,76
385,89	15407,83
386,10	15456,78
386,30	15587,19
386,51	15209,10
386,72	15512,63
386,93	15320,26
387,14	15261,65
387,35	15625,80
387,56	15243,83
387,77	15303,90
387,97	15581,79
388,18	16065,91
388,39	16415,80
388,60	17010,80
388,81	17524,39
389,02	18335,16
389,23	19141,71
389,43	18892,49
389,64	19209,84
389,85	18902,24
390,06	19270,18
390,27	20226,19
390,48	20465,93
390,69	20357,34
390,89	21405,41
391,10	20491,93
391,31	19780,27
391,52	19153,79
391,73	18215,02
391,94	16452,71
392,14	14848,26
392,35	13478,75
392,56	12133,89
392,77	11452,98
392,98	11107,36
393,19	11292,09
393,39	12364,30
393,60	13542,77
393,81	15677,53
394,02	16494,40
394,23	18426,82
394,44	19073,43
394,64	20002,10
394,85	21120,48
395,06	19746,64
395,27	19218,18
395,48	18600,78
395,69	16230,97
395,89	15601,71
396,10	14580,41
396,31	13044,09
396,52	13588,21
396,73	14583,91
396,93	16561,98
397,14	17348,02
397,35	20658,07
397,56	21710,43
397,77	23522,15
397,97	25103,92
398,18	26471,14
398,39	25755,21
398,60	26874,80
398,81	26949,49
399,01	28312,51
399,22	27320,91
399,43	28093,54
399,64	27919,94
399,85	28031,78
400,05	28307,29
400,26	28393,18
400,47	28348,97
400,68	29562,82
400,89	28796,04
401,09	30244,79
401,30	30286,55
401,51	30081,90
401,72	29749,29
401,93	30574,78
402,13	30372,34
402,34	29405,57
402,55	29629,77
402,76	29072,80
402,96	29467,81
403,17	28510,06
403,38	29328,10
403,59	28680,10
403,80	30084,91
404,00	28748,73
404,21	28051,21
404,42	29673,53
404,63	29571,99
404,83	29621,49
405,04	27884,28
405,25	28380,18
405,46	28134,73
405,66	27378,52
405,87	28109,11
406,08	28057,05
406,29	28846,91
406,49	28443,19
406,70	28353,64
406,91	27799,23
407,12	29707,96
407,32	28424,91
407,53	30266,81
407,74	30006,10
407,95	29398,14
408,15	30590,82
408,36	30575,03
408,57	30592,48
408,78	30681,79
408,98	30231,58
409,19	28352,10
409,40	29085,27
409,61	27353,65
409,81	27839,37
410,02	28020,49
410,23	28867,59
410,44	30722,32
410,64	30611,11
410,85	30684,86
411,06	31850,73
411,26	31445,19
411,47	31622,95
411,68	32147,03
411,89	30173,46
412,09	31354,59
412,30	31079,65
412,51	29981,48
412,72	30113,52
412,92	31303,61
413,13	30979,97
413,34	30773,09
413,54	30939,13
413,75	30872,17
413,96	30641,61
414,17	30226,40
414,37	30750,21
414,58	30120,97
414,79	31277,30
414,99	30241,94
415,20	31076,78
415,41	31510,35
415,61	32040,66
415,82	32128,98
416,03	30634,56
416,24	31290,65
416,44	31314,90
416,65	30613,84
416,86	31128,29
417,06	30022,67
417,27	29529,21
417,48	29107,82
417,68	30375,29
417,89	30695,86
418,10	29539,20
418,30	30233,69
418,51	30008,21
418,72	29928,61
418,92	31321,12
419,13	29364,25
419,34	29940,09
419,55	29770,26
419,75	30283,40
419,96	30441,68
420,17	32016,47
420,37	31673,88
420,58	30538,61
420,79	30405,41
420,99	32175,80
421,20	32110,96
421,41	31184,83
421,61	31209,61
421,82	29114,78
422,03	29754,61
422,23	28840,17
422,44	29628,27
422,65	29870,89
422,85	29761,39
423,06	29960,86
423,26	30480,47
423,47	31714,93
423,68	29963,89
423,88	31104,06
424,09	30358,13
424,30	30387,15
424,50	30978,68
424,71	30497,12
424,92	30229,76
425,12	29785,21
425,33	31246,39
425,54	31173,16
425,74	31309,63
425,95	29935,34
426,15	31481,23
426,36	28960,37
426,57	30462,92
426,77	28883,92
426,98	29863,93
427,19	29331,81
427,39	30140,39
427,60	29327,28
427,81	29819,94
428,01	29092,28
428,22	30729,05
428,42	27493,37
428,63	28156,03
428,84	27699,21
429,04	26148,85
429,25	25521,40
429,45	23784,64
429,66	23906,23
429,87	23485,00
430,07	22677,98
430,28	23222,92
430,49	23926,69
430,69	26194,85
430,90	27051,80
431,10	28351,85
431,31	29569,02
431,52	31657,95
431,72	30897,19
431,93	30100,66
432,13	31469,44
432,34	31874,09
432,55	31099,08
432,75	32707,02
432,96	31710,58
433,16	31202,61
433,37	30568,02
433,58	31350,49
433,78	30721,44
433,99	29028,44
434,19	31059,90
434,40	31837,80
434,60	32705,96
434,81	32631,78
435,02	32959,39
435,22	34067,67
435,43	33200,30
435,63	33810,02
435,84	35396,93
436,05	34989,89
436,25	33076,56
436,46	34693,49
436,66	34169,54
436,87	33755,07
437,07	32327,66
437,28	31869,16
437,48	31840,81
437,69	30153,39
437,90	30716,54
438,10	30445,62
438,31	30306,97
438,51	32559,14
438,72	31599,26
438,92	32206,25
439,13	32526,06
439,34	32415,66
439,54	32279,26
439,75	32058,58
439,95	31591,84
440,16	33161,43
440,36	33296,53
440,57	33380,68
440,77	34724,19
440,98	33658,06
441,18	34197,25
441,39	34445,73
441,60	36175,63
441,80	35458,57
442,01	33601,27
442,21	35611,86
442,42	34093,56
442,62	34700,66
442,83	34761,46
443,03	34993,56
443,24	34818,77
443,44	34666,34
443,65	35432,77
443,85	34837,46
444,06	34952,81
444,26	35173,06
444,47	34050,55
444,67	34714,14
444,88	33519,19
445,09	32595,80
445,29	33183,03
445,50	32645,09
445,70	32469,83
445,91	33478,78
446,11	33168,74
446,32	34000,60
446,52	34861,08
446,73	34676,17
446,93	35736,22
447,14	35103,43
447,34	35924,36
447,55	34178,20
447,75	35079,47
447,96	35579,32
448,16	34564,22
448,37	35368,28
448,57	34616,51
448,78	35401,88
448,98	34949,14
449,19	35277,67
449,39	36323,08
449,60	35685,75
449,80	37304,65
450,01	37464,37
450,21	37375,74
450,42	37666,71
450,62	37161,77
450,83	36766,26
451,03	36300,25
451,23	36529,19
451,44	35989,84
451,64	36042,41
451,85	34817,11
452,05	35204,19
452,26	34733,67
452,46	33865,85
452,67	33530,68
452,87	33532,83
453,08	34095,26
453,28	33159,26
453,49	35237,99
453,69	34609,87
453,90	34399,77
454,10	35204,62
454,31	34741,78
454,51	34651,90
454,71	34376,45
454,92	34169,17
455,12	34313,12
455,33	35809,90
455,53	36686,19
455,74	37557,78
455,94	38282,74
456,15	38797,81
456,35	40218,44
456,55	39535,28
456,76	40439,13
456,96	41666,52
457,17	38165,06
457,37	42170,13
457,58	40188,05
457,78	41431,49
457,99	39882,68
458,19	37745,66
458,39	39905,51
458,60	41447,47
458,80	40797,32
459,01	39748,41
459,21	39335,17
459,42	40901,15
459,62	38981,06
459,82	42257,38
460,03	41615,18
460,23	42161,88
460,44	42235,67
460,64	39822,57
460,85	43004,66
461,05	41187,83
461,25	40975,49
461,46	43864,77
461,66	42828,21
461,87	41719,52
462,07	42210,03
462,27	40928,74
462,48	40351,78
462,68	42120,49
462,89	41685,71
463,09	39747,55
463,29	41702,58
463,50	40453,83
463,70	41406,59
463,91	39683,92
464,11	39806,88
464,31	40770,61
464,52	40917,49
464,72	42232,27
464,93	41898,10
465,13	42769,43
465,33	41374,91
465,54	40955,69
465,74	40678,68
465,95	41276,09
466,15	40357,19
466,35	41480,03
466,56	41380,11
466,76	42323,36
466,96	41261,47
467,17	41553,63
467,37	42095,90
467,58	41935,21
467,78	41982,85
467,98	43129,38
468,19	42251,23
468,39	43647,89
468,59	43940,54
468,80	42783,54
469,00	42804,57
469,21	42575,26
469,41	42441,61
469,61	43639,55
469,82	41731,34
470,02	43049,47
470,22	44639,33
470,43	44140,34
470,63	43626,42
470,83	46696,33
471,04	45430,32
471,24	46048,56
471,45	45933,58
471,65	47263,29
471,85	45845,89
472,06	47034,88
472,26	46808,93
472,46	46345,57
472,67	46922,73
472,87	46733,50
473,07	46822,73
473,28	46276,72
473,48	48163,84
473,68	48150,08
473,89	48624,98
474,09	48945,90
474,29	48610,32
474,50	49820,24
474,70	48890,48
474,90	49564,57
475,11	49547,27
475,31	49142,55
475,51	48654,00
475,72	48554,94
475,92	48311,58
476,12	47512,32
476,33	49650,95
476,53	50154,20
476,73	50811,33
476,93	51866,49
477,14	51521,86
477,34	51433,06
477,54	52418,50
477,75	52478,79
477,95	52425,83
478,15	52227,77
478,36	53109,26
478,56	53438,16
478,76	53817,01
478,97	54677,43
479,17	53772,04
479,37	53967,44
479,57	54063,18
479,78	53837,37
479,98	54559,16
480,18	55193,47
480,39	55170,19
480,59	56340,28
480,79	56161,92
480,99	56441,59
481,20	57144,27
481,40	56725,85
481,60	56957,12
481,81	56196,08
482,01	56582,51
482,21	56454,14
482,41	56896,32
482,62	56668,65
482,82	57386,09
483,02	57952,97
483,23	57400,14
483,43	57820,14
483,63	56822,33
483,83	57155,55
484,04	58501,19
484,24	57459,86
484,44	57481,63
484,64	56283,20
484,85	55080,37
485,05	53748,57
485,25	52133,26
485,45	50730,73
485,66	50512,64
485,86	49905,74
486,06	50718,85
486,26	51935,63
486,47	52650,78
486,67	53967,19
486,87	54959,49
487,07	55756,44
487,28	56100,64
487,48	56600,70
487,68	58119,80
487,88	57740,37
488,09	57430,94
488,29	57201,04
488,49	58565,66
488,69	58470,08
488,90	59582,27
489,10	59593,23
489,30	60051,09
489,50	60892,11
489,71	61097,67
489,91	61444,51
490,11	61030,57
490,31	60500,27
490,52	60553,77
490,72	59841,28
490,92	60322,96
491,12	59270,37
491,32	58444,65
491,53	58681,12
491,73	58554,81
491,93	59333,93
492,13	60125,95
492,33	60350,22
492,54	59682,81
492,74	60690,18
492,94	60253,88
493,14	60814,37
493,35	60728,85
493,55	61034,34
493,75	61550,16
493,95	61631,14
494,15	61953,29
494,36	62950,61
494,56	61827,54
494,76	62005,90
494,96	61603,13
495,16	61502,92
495,37	61462,51
495,57	61647,59
495,77	61438,26
495,97	61604,58
496,17	62440,60
496,37	61646,44
496,58	62224,64
496,78	60983,84
496,98	61636,18
497,18	60810,73
497,38	60475,70
497,59	60171,04
497,79	59438,52
497,99	59114,97
498,19	59723,81
498,39	59519,79
498,59	60463,04
498,80	60141,47
499,00	59894,57
499,20	59832,31
499,40	58881,03
499,60	58868,37
499,80	58452,22
500,01	57798,39
500,21	57237,02
500,41	56903,73
500,61	56989,89
500,81	55975,39
501,01	56338,86
501,22	55805,76
501,42	56089,32
501,62	56069,51
501,82	56294,26
502,02	56729,90
502,22	56665,94
502,42	56926,69
502,63	57407,16
502,83	56777,93
503,03	56490,29
503,23	56146,78
503,43	55626,35
503,63	55092,18
503,83	55897,26
504,04	55163,04
504,24	55825,17
504,44	55786,55
504,64	56757,88
504,84	56931,67
505,04	56862,98
505,24	57988,17
505,44	57972,26
505,65	57573,11
505,85	57410,87
506,05	56967,59
506,25	56750,52
506,45	56005,02
506,65	55609,70
506,85	55619,35
507,05	55441,81
507,26	54895,50
507,46	54448,63
507,66	54944,48
507,86	54645,64
508,06	55653,06
508,26	55705,12
508,46	55835,31
508,66	55840,31
508,86	55756,89
509,06	55556,78
509,27	55491,66
509,47	55145,98
509,67	55160,20
509,87	54848,70
510,07	55002,48
510,27	55681,83
510,47	55326,47
510,67	55682,18
510,87	55687,90
511,07	56271,30
511,28	56238,74
511,48	55151,37
511,68	55474,35
511,88	55388,61
512,08	54734,03
512,28	54497,00
512,48	53970,04
512,68	54315,18
512,88	53890,17
513,08	53975,49
513,28	53707,41
513,48	53433,78
513,68	53850,99
513,89	53714,29
514,09	52971,20
514,29	54273,28
514,49	54142,13
514,69	54027,36
514,89	54630,84
515,09	54892,32
515,29	54766,37
515,49	53710,85
515,69	52648,83
515,89	51458,41
516,09	50335,94
516,29	49112,48
516,49	48583,43
516,69	49016,10
516,89	49087,39
517,09	49586,01
517,29	49845,55
517,50	49874,96
517,70	49849,03
517,90	49818,44
518,10	49949,04
518,30	51739,68
518,50	51083,41
518,70	52178,84
518,90	53549,39
519,10	53804,50
519,30	54517,73
519,50	54739,83
519,70	54939,71
519,90	54881,06
520,10	55271,05
520,30	54949,89
520,50	54996,95
520,70	55842,80
520,90	55448,67
521,10	56102,28
521,30	56021,94
521,50	56536,90
521,70	56274,33
521,90	55796,58
522,10	55672,17
522,30	54718,92
522,50	54968,03
522,70	55005,23
522,90	55856,71
523,10	56146,37
523,30	56912,13
523,50	56921,86
523,70	57526,97
523,90	57543,05
524,10	57604,10
524,30	56817,70
524,50	57097,51
524,70	57270,26
524,90	57045,35
525,10	56954,71
525,30	56002,28
525,50	55606,00
525,70	54499,91
525,90	52856,95
526,10	52066,98
526,30	52068,70
526,50	51782,15
526,70	52320,52
526,90	52732,70
527,10	52998,03
527,30	53840,32
527,50	54880,11
527,70	55055,65
527,90	55676,16
528,10	55799,73
528,30	56683,62
528,50	56899,84
528,70	56555,13
528,90	56876,80
529,10	56456,38
529,30	56036,79
529,50	56437,74
529,70	56178,57
529,90	56619,56
530,10	56962,98
530,29	56895,54
530,49	57317,83
530,69	57182,95
530,89	57334,91
531,09	56528,07
531,29	55938,91
531,49	55789,15
531,69	54893,65
531,89	54168,88
532,09	53708,82
532,29	53170,43
532,49	53291,30
532,69	53687,66
532,89	53757,66
533,09	53773,33
533,29	54274,08
533,49	54069,96
533,68	54105,72
533,88	54968,20
534,08	54889,72
534,28	54578,45
534,48	54934,28
534,68	55382,07
534,88	55200,95
535,08	55900,86
535,28	56094,97
535,48	55667,64
535,68	54992,69
535,88	54641,65
536,08	54129,72
536,27	53845,87
536,47	53202,66
536,67	53893,01
536,87	53903,73
537,07	53583,77
537,27	54094,33
537,47	54050,52
537,67	53769,38
537,87	54056,36
538,07	54362,94
538,27	53581,29
538,46	53540,23
538,66	53005,75
538,86	52307,54
539,06	52442,68
539,26	51766,26
539,46	51302,83
539,66	51137,51
539,86	50837,08
540,06	50684,81
540,25	50377,92
540,45	50432,66
540,65	50793,45
540,85	51317,53
541,05	51446,51
541,25	51616,55
541,45	51439,61
541,65	51392,22
541,85	51313,39
542,04	51271,04
542,24	51126,45
542,44	51060,53
542,64	50854,77
542,84	50822,15
543,04	50913,94
543,24	50918,81
543,43	51283,45
543,63	51402,01
543,83	51189,12
544,03	50837,42
544,23	50727,43
544,43	50717,58
544,63	50715,30
544,82	51073,82
545,02	50353,10
545,22	50913,81
545,42	49885,61
545,62	50736,91
545,82	50509,40
546,02	50231,74
546,21	50000,60
546,41	49692,73
546,61	49318,38
546,81	49472,27
547,01	48660,15
547,21	48958,25
547,40	48552,08
547,60	48386,72
547,80	48417,24
548,00	48949,38
548,20	48891,10
548,40	48714,79
548,59	49069,23
548,79	48922,61
548,99	49099,44
549,19	48714,50
549,39	48434,03
549,59	48702,36
549,78	47798,75
549,98	48241,62
550,18	47745,50
550,38	47679,31
550,58	47773,48
550,77	47670,34
550,97	47988,56
551,17	47401,77
551,37	47970,17
551,57	47615,58
551,76	47349,37
551,96	47031,66
552,16	46439,35
552,36	46974,75
552,56	46528,85
552,75	46694,24
552,95	46728,30
553,15	46891,75
553,35	46543,59
553,55	46444,39
553,74	46980,38
553,94	46564,05
554,14	46475,52
554,34	46557,03
554,54	46564,36
554,73	46712,94
554,93	46651,85
555,13	46552,21
555,33	45968,85
555,53	46074,36
555,72	45199,26
555,92	45105,88
556,12	44768,78
556,32	44423,41
556,51	44379,13
556,71	44623,38
556,91	44050,33
557,11	44140,24
557,30	44324,06
557,50	43920,66
557,70	43383,06
557,90	43444,28
558,10	42878,85
558,29	42362,01
558,49	42624,91
558,69	42055,73
558,89	41921,61
559,08	42175,81
559,28	42137,41
559,48	42108,04
559,68	42158,19
559,87	42684,50
560,07	42754,38
560,27	43181,40
560,47	42794,87
560,66	42985,55
560,86	42411,51
561,06	41894,40
561,25	42192,50
561,45	42034,35
561,65	41889,79
561,85	41770,21
562,04	41709,03
562,24	41771,91
562,44	42029,40
562,64	41650,36
562,83	41749,30
563,03	41528,10
563,23	41592,42
563,42	41220,51
563,62	41488,57
563,82	41096,67
564,02	41316,13
564,21	40955,71
564,41	40838,65
564,61	40698,30
564,80	40351,03
565,00	40001,83
565,20	39700,49
565,40	39556,13
565,59	39514,18
565,79	39763,69
565,99	39882,33
566,18	39885,03
566,38	39831,60
566,58	39759,47
566,78	39858,39
566,97	40133,88
567,17	39931,83
567,37	39767,50
567,56	39403,57
567,76	39053,88
567,96	39010,30
568,15	38563,01
568,35	38543,61
568,55	38728,36
568,74	38333,35
568,94	38690,53
569,14	38431,55
569,33	38187,33
569,53	37981,18
569,73	37977,72
569,92	37231,01
570,12	36972,53
570,32	37001,12
570,52	36445,73
570,71	36741,38
570,91	36629,74
571,11	36983,59
571,30	37089,27
571,50	37237,56
571,70	37648,51
571,89	37382,50
572,09	37572,75
572,28	37659,54
572,48	37557,60
572,68	37584,53
572,87	37580,86
573,07	37768,93
573,27	37263,69
573,46	37358,94
573,66	37296,81
573,86	36951,91
574,05	37094,28
574,25	36535,54
574,45	36407,93
574,64	36239,11
574,84	36074,89
575,04	35942,77
575,23	36072,70
575,43	36029,05
575,62	36158,75
575,82	35742,44
576,02	35721,06
576,21	35987,30
576,41	36265,64
576,61	36143,37
576,80	35946,77
577,00	35825,90
577,19	35650,45
577,39	35680,88
577,59	35386,26
577,78	35141,03
577,98	35281,73
578,18	34943,41
578,37	35187,77
578,57	35405,00
578,76	35406,47
578,96	35311,73
579,16	35791,31
579,35	36194,59
579,55	35777,91
579,74	35792,15
579,94	36090,82
580,14	36219,39
580,33	36348,58
580,53	36527,92
580,72	36413,42
580,92	36605,23
581,12	36411,98
581,31	36690,94
581,51	36931,84
581,70	36769,82
581,90	37267,77
582,10	36916,19
582,29	37391,38
582,49	37096,33
582,68	37334,06
582,88	37361,16
583,07	37135,69
583,27	37141,20
583,47	37372,54
583,66	37448,50
583,86	37086,85
584,05	37101,92
584,25	36835,77
584,44	36921,25
584,64	36409,01
584,84	36476,56
585,03	36075,79
585,23	35920,59
585,42	36106,86
585,62	35699,64
585,81	36080,58
586,01	36061,90
586,20	36304,42
586,40	36348,78
586,60	35941,34
586,79	36330,84
586,99	36150,50
587,18	36075,62
587,38	36126,56
587,57	35491,61
587,77	35055,76
587,96	34601,48
588,16	33699,12
588,35	33080,68
588,55	32642,04
588,75	32143,69
588,94	32089,11
589,14	32168,28
589,33	32338,39
589,53	33062,08
589,72	32890,85
589,92	33793,31
590,11	33606,20
590,31	33886,98
590,50	34100,34
590,70	33871,21
590,89	34277,53
591,09	33903,61
591,28	33856,12
591,48	34054,75
591,67	33695,19
591,87	33940,86
592,06	33843,42
592,26	33832,65
592,45	33708,48
592,65	34008,18
592,84	33828,20
593,04	33815,47
593,23	33631,07
593,43	33725,74
593,62	33407,84
593,82	33106,93
594,01	33034,68
594,21	33302,76
594,40	32959,93
594,60	32668,87
594,79	32969,86
594,99	32658,26
595,18	33132,94
595,38	32837,52
595,57	32842,39
595,77	33170,21
595,96	33150,53
596,16	33105,03
596,35	32904,73
596,55	32568,87
596,74	32843,19
596,94	32560,74
597,13	32501,80
597,33	32391,47
597,52	32047,31
597,72	31980,55
597,91	32095,99
598,11	31921,89
598,30	31913,58
598,50	32044,92
598,69	31827,34
598,88	31781,73
599,08	31646,30
599,27	31865,37
599,47	31468,39
599,66	31522,13
599,86	31406,85
600,05	31463,44
600,25	31371,85
600,44	30819,39
600,64	30999,20
600,83	30804,85
601,02	30876,36
601,22	30468,18
601,41	30387,45
601,61	30586,02
601,80	30435,40
602,00	30597,33
602,19	30342,99
602,38	30432,55
602,58	30465,13
602,77	30636,53
602,97	30769,58
603,16	30967,58
603,36	30527,39
603,55	30944,44
603,74	30450,12
603,94	30505,46
604,13	30699,05
604,33	30544,14
604,52	30355,22
604,72	30263,33
604,91	30233,51
605,10	30406,91
605,30	29951,93
605,49	29978,62
605,69	29851,75
605,88	29587,66
606,07	29859,06
606,27	29741,38
606,46	29620,37
606,66	29603,27
606,85	29222,59
607,04	29321,22
607,24	29081,40
607,43	29150,19
607,63	28900,73
607,82	28880,68
608,01	28956,80
608,21	28604,86
608,40	28733,82
608,60	28326,60
608,79	28580,02
608,98	28084,70
609,18	28625,73
609,37	28004,70
609,57	27955,12
609,76	27908,67
609,95	27956,02
610,15	28045,87
610,34	28009,21
610,53	28018,42
610,73	27806,71
610,92	27983,55
611,11	27894,85
611,31	27861,94
611,50	27719,44
611,70	27648,32
611,89	27697,41
612,08	27731,85
612,28	27674,45
612,47	27650,02
612,66	27554,72
612,86	27299,46
613,05	27247,02
613,24	27052,03
613,44	27293,12
613,63	27201,14
613,82	27449,99
614,02	27525,58
614,21	27340,98
614,41	27461,27
614,60	27614,93
614,79	27259,12
614,99	27214,04
615,18	27305,53
615,37	27065,18
615,57	27361,23
615,76	26893,93
615,95	26748,70
616,15	26672,11
616,34	27096,00
616,53	27132,53
616,73	27469,73
616,92	27442,23
617,11	27482,35
617,30	27462,73
617,50	27802,67
617,69	27898,09
617,88	27996,49
618,08	27813,44
618,27	28138,68
618,46	28080,60
618,66	28005,07
618,85	28220,66
619,04	28137,74
619,24	28504,02
619,43	28589,46
619,62	28537,67
619,82	28593,84
620,01	28647,99
620,20	28709,61
620,39	28432,81
620,59	28555,36
620,78	28469,88
620,97	28461,79
621,17	28430,23
621,36	28622,12
621,55	28402,58
621,74	28423,90
621,94	28331,87
622,13	28260,04
622,32	28125,80
622,52	28028,77
622,71	27990,55
622,90	27895,26
623,09	27832,02
623,29	27903,31
623,48	27765,58
623,67	27745,41
623,86	27614,44
624,06	27563,16
624,25	27617,98
624,44	27415,58
624,64	27445,44
624,83	27314,17
625,02	26992,90
625,21	27024,36
625,41	27363,67
625,60	27322,67
625,79	27319,17
625,98	27333,40
626,18	27748,19
626,37	27156,09
626,56	26942,71
626,75	26923,89
626,95	26197,25
627,14	25889,97
627,33	25850,14
627,52	25681,77
627,72	25625,25
627,91	25597,25
628,10	25875,55
628,29	25818,31
628,49	25760,27
628,68	25565,76
628,87	25655,85
629,06	25866,30
629,25	25584,45
629,45	25422,19
629,64	25541,59
629,83	25769,30
630,02	25628,61
630,22	25604,20
630,41	25843,38
630,60	25657,05
630,79	25533,38
630,98	25500,49
631,18	25515,52
631,37	25492,71
631,56	25812,86
631,75	25973,57
631,94	26071,11
632,14	26063,86
632,33	26033,82
632,52	26123,50
632,71	25946,68
632,90	26079,65
633,10	26079,65
633,29	25825,50
633,48	25889,85
633,67	25956,41
633,86	26083,09
634,06	26111,89
634,25	26093,74
634,44	26249,66
634,63	25942,42
634,82	26198,37
635,02	25810,18
635,21	25996,69
635,40	25944,75
635,59	25837,48
635,78	25903,53
635,97	25898,22
636,17	25713,07
636,36	26161,57
636,55	26024,44
636,74	26241,75
636,93	25933,67
637,12	26172,67
637,32	26453,67
637,51	26006,19
637,70	26136,34
637,89	26138,08
638,08	26279,02
638,27	26143,51
638,47	26044,31
638,66	26007,50
638,85	25737,79
639,04	25857,90
639,23	25539,67
639,42	25567,72
639,62	25632,44
639,81	25453,26
640,00	25385,17
640,19	25162,53
640,38	25249,51
640,57	25265,63
640,76	25097,00
640,95	25217,27
641,15	25202,28
641,34	25129,03
641,53	25052,41
641,72	25057,80
641,91	25204,74
642,10	25168,29
642,29	25204,62
642,49	25209,49
642,68	25047,76
642,87	25180,39
643,06	25198,94
643,25	25135,09
643,44	25024,74
643,63	25034,72
643,82	25034,00
644,01	25173,78
644,21	25040,29
644,40	24917,66
644,59	24698,95
644,78	24805,43
644,97	24508,25
645,16	24656,52
645,35	24388,62
645,54	24579,48
645,73	24373,18
645,92	24401,34
646,12	24290,81
646,31	24112,11
646,50	24116,39
646,69	24243,67
646,88	24010,67
647,07	24024,80
647,26	23866,62
647,45	23801,90
647,64	23836,70
647,83	23877,90
648,02	23851,18
648,22	23643,08
648,41	23605,36
648,60	23260,13
648,79	23194,76
648,98	23100,12
649,17	22938,13
649,36	23139,96
649,55	23199,06
649,74	23115,10
649,93	23264,64
650,12	23575,42
650,31	23482,69
650,50	23259,91
650,69	23312,19
650,88	23510,27
651,08	23106,41
651,27	23282,01
651,46	23208,81
651,65	23095,91
651,84	22929,73
652,03	23179,93
652,22	23099,08
652,41	23013,13
652,60	23183,23
652,79	23149,77
652,98	23065,96
653,17	23012,19
653,36	23001,19
653,55	22879,19
653,74	22709,60
653,93	22786,87
654,12	22406,13
654,31	22479,47
654,50	22397,88
654,69	21989,53
654,88	21587,02
655,07	21105,59
655,26	20254,86
655,45	19935,42
655,64	19505,35
655,83	19340,05
656,02	19314,80
656,21	19518,56
656,40	19674,43
656,59	20126,15
656,78	20245,60
656,97	20621,94
657,17	20911,65
657,36	21126,11
657,55	20998,99
657,74	21413,19
657,93	21598,88
658,12	21653,32
658,31	21746,21
658,50	21775,64
658,69	21590,46
658,87	21813,14
659,06	21643,83
659,25	21691,63
659,44	21802,70
659,63	21823,38
659,82	21852,20
660,01	21631,51
660,20	21859,12
660,39	21739,09
660,58	21773,43
660,77	21755,90
660,96	21863,21
661,15	21568,88
661,34	21831,39
661,53	21704,54
661,72	21724,38
661,91	21802,18
662,10	21503,84
662,29	21485,88
662,48	21258,02
662,67	21424,72
662,86	21224,25
663,05	21193,47
663,24	21299,49
663,43	21134,30
663,62	21024,30
663,81	21017,12
664,00	21153,14
664,19	20992,46
664,38	21043,25
664,57	21030,98
664,76	21034,69
664,94	21028,83
665,13	20912,65
665,32	20771,77
665,51	20981,17
665,70	20657,45
665,89	20664,80
666,08	20573,81
666,27	20692,53
666,46	20551,63
666,65	20500,39
666,84	20553,07
667,03	20494,21
667,22	20370,59
667,41	20415,14
667,60	20395,95
667,78	20395,64
667,97	20407,99
668,16	20452,31
668,35	20389,19
668,54	20171,59
668,73	20305,90
668,92	20147,79
669,11	20129,87
669,30	20043,57
669,49	20013,32
669,68	19933,58
669,86	19933,02
670,05	19871,36
670,24	19721,63
670,43	19674,90
670,62	19606,43
670,81	19606,19
671,00	19473,36
671,19	19510,83
671,38	19241,83
671,57	19420,85
671,75	19369,55
671,94	19238,33
672,13	19269,87
672,32	19366,60
672,51	19236,86
672,70	19391,29
672,89	19120,23
673,08	19222,71
673,26	19232,43
673,45	19045,47
673,64	19168,82
673,83	18932,82
674,02	18972,63
674,21	18927,37
674,40	19002,00
674,59	18961,00
674,77	18822,61
674,96	18806,05
675,15	18806,93
675,34	18890,40
675,53	18749,79
675,72	18561,89
675,91	18675,14
676,09	18618,00
676,28	18639,81
676,47	18378,47
676,66	18439,79
676,85	18551,01
677,04	18611,41
677,22	18463,03
677,41	18452,57
677,60	18423,18
677,79	18322,54
677,98	18163,99
678,17	18257,83
678,36	18306,20
678,54	18263,25
678,73	18115,88
678,92	18193,64
679,11	18130,75
679,30	18075,37
679,48	18105,85
679,67	18059,36
679,86	18148,24
680,05	17915,00
680,24	17943,54
680,43	17869,45
680,61	17825,93
680,80	17796,44
680,99	17860,95
681,18	17745,16
681,37	17677,49
681,55	17802,30
681,74	17544,33
681,93	17638,56
682,12	17632,95
682,31	17562,99
682,49	17544,95
682,68	17347,34
682,87	17447,65
683,06	17376,48
683,25	17186,62
683,43	17288,36
683,62	17018,01
683,81	17202,20
684,00	17041,17
684,19	16950,40
684,37	16922,20
684,56	16914,93
684,75	16802,81
684,94	16796,54
685,12	16765,80
685,31	16686,40
685,50	16341,48
685,69	15814,50
685,88	14902,47
686,06	13916,91
686,25	12897,08
686,44	12023,95
686,63	11379,60
686,81	11068,12
687,00	10957,82
687,19	11107,69
687,38	11300,92
687,56	11506,64
687,75	11649,50
687,94	11785,69
688,13	11644,93
688,31	11697,49
688,50	11682,82
688,69	11754,60
688,88	11882,72
689,06	11920,67
689,25	12079,74
689,44	12226,31
689,63	12278,54
689,81	12606,39
690,00	12698,04
690,19	12917,19
690,38	13056,76
690,56	13179,52
690,75	13398,41
690,94	13497,45
691,13	13832,10
691,31	13944,33
691,50	14074,83
691,69	14120,05
691,87	14301,70
692,06	14337,30
692,25	14437,91
692,44	14432,10
692,62	14469,47
692,81	14461,18
693,00	14523,85
693,18	14564,36
693,37	14547,89
693,56	14468,26
693,75	14509,18
693,93	14604,37
694,12	14535,40
694,31	14520,51
694,49	14506,48
694,68	14653,18
694,87	14524,58
695,05	14726,37
695,24	14736,00
695,43	14658,56
695,62	14755,14
695,80	14850,11
695,99	14855,00
696,18	14940,38
696,36	15035,92
696,55	14939,22
696,74	14913,45
696,92	14876,30
697,11	14882,04
697,30	14772,92
697,48	14774,46
697,67	14795,57
697,86	14612,99
698,04	14692,39
698,23	14570,56
698,42	14555,16
698,60	14411,35
698,79	14513,91
698,98	14386,39
699,16	14341,07
699,35	14360,73
699,54	14231,85
699,72	14193,86
699,91	14284,44
700,10	14178,03
700,28	14086,91
700,47	14068,52
700,66	14081,03
700,84	13956,11
701,03	13897,29
701,21	13874,46
701,40	14047,65
701,59	13795,69
701,77	13883,10
701,96	13880,01
702,15	13916,62
702,33	13962,25
702,52	13963,71
702,71	13931,33
702,89	14021,38
703,08	13991,37
703,26	13980,15
703,45	14131,11
703,64	14037,43
703,82	14042,10
704,01	14063,18
704,20	13984,90
704,38	14042,43
704,57	13948,24
704,75	13914,70
704,94	13958,89
705,13	13961,74
705,31	13983,86
705,50	13940,42
705,68	13894,92
705,87	13959,63
706,06	13878,02
706,24	13980,21
706,43	13826,45
706,61	13857,23
706,80	13821,66
706,99	13838,27
707,17	13846,13
707,36	13804,31
707,54	13688,38
707,73	13792,97
707,92	13723,23
708,10	13628,23
708,29	13576,91
708,47	13627,49
708,66	13611,89
708,84	13585,24
709,03	13547,99
709,22	13552,68
709,40	13500,05
709,59	13599,17
709,77	13541,74
709,96	13587,80
710,14	13452,47
710,33	13437,09
710,52	13387,78
710,70	13483,15
710,89	13310,63
711,07	13281,88
711,26	13370,53
711,44	13241,88
711,63	13185,05
711,81	13222,38
712,00	13230,78
712,19	13077,08
712,37	13053,53
712,56	13090,74
712,74	13010,93
712,93	13050,44
713,11	13013,47
713,30	12992,62
713,48	12978,10
713,67	13035,98
713,85	12844,31
714,04	12822,97
714,22	12711,78
714,41	12757,04
714,59	12661,03
714,78	12678,83
714,97	12722,90
715,15	12507,58
715,34	12546,94
715,52	12437,38
715,71	12349,42
715,89	12073,39
716,08	11932,43
716,26	11662,30
716,45	11440,14
716,63	11366,62
716,82	10995,16
717,00	10988,97
717,19	10722,57
717,37	10592,48
717,56	10371,88
717,74	10255,55
717,93	10104,94
718,11	9981,78
718,30	9829,98
718,48	9818,43
718,67	9770,18
718,85	9677,23
719,04	9544,91
719,22	9539,68
719,41	9522,93
719,59	9559,98
719,78	9563,79
719,96	9690,25
720,15	9811,47
720,33	10154,38
720,52	10200,69
720,70	10425,72
720,88	10553,63
721,07	10742,93
721,25	10791,46
721,44	10909,10
721,62	10784,99
721,81	10993,68
721,99	10825,79
722,18	10731,58
722,36	10690,17
722,55	10572,64
722,73	10316,97
722,92	10208,94
723,10	10081,54
723,28	10047,54
723,47	9872,15
723,65	9869,39
723,84	9856,34
724,02	9825,07
724,21	9743,68
724,39	9710,03
724,58	9708,76
724,76	9793,20
724,94	9642,70
725,13	9816,88
725,31	9690,21
725,50	9785,99
725,68	9791,01
725,87	9701,78
726,05	9711,26
726,23	9750,58
726,42	9682,92
726,60	9646,53
726,79	9525,86
726,97	9510,66
727,16	9423,28
727,34	9539,34
727,52	9498,81
727,71	9487,28
727,89	9484,35
728,08	9473,80
728,26	9457,89
728,44	9328,56
728,63	9430,38
728,81	9318,44
729,00	9387,64
729,18	9499,11
729,36	9507,10
729,55	9442,18
729,73	9446,36
729,92	9452,34
730,10	9333,80
730,28	9542,33
730,47	9435,50
730,65	9500,83
730,84	9479,39
731,02	9531,88
731,20	9573,13
731,39	9649,48
731,57	9588,26
731,75	9886,43
731,94	9728,24
732,12	9824,50
732,31	9800,78
732,49	9914,75
732,67	9887,84
732,86	9995,64
733,04	9928,70
733,22	10084,79
733,41	9935,27
733,59	10125,69
733,78	10017,97
733,96	9847,78
734,14	10060,50
734,33	9982,70
734,51	9917,06
734,69	9832,83
734,88	9836,72
735,06	9799,96
735,24	9741,31
735,43	9735,06
735,61	9708,27
735,79	9655,72
735,98	9692,42
736,16	9702,60
736,34	9556,11
736,53	9732,71
736,71	9688,28
736,89	9670,12
737,08	9563,73
737,26	9651,91
737,44	9586,34
737,63	9551,52
737,81	9540,73
737,99	9511,20
738,18	9395,06
738,36	9415,50
738,54	9330,12
738,73	9390,22
738,91	9376,56
739,09	9440,66
739,28	9349,67
739,46	9352,68
739,64	9417,09
739,82	9337,51
740,01	9290,57
740,19	9328,48
740,37	9253,34
740,56	9137,75
740,74	9186,23
740,92	9122,94
741,11	9178,59
741,29	9155,79
741,47	9126,85
741,65	9085,36
741,84	9135,48
742,02	9106,01
742,20	9140,78
742,39	9077,11
742,57	9146,64
742,75	9165,36
742,93	9118,38
743,12	9037,42
743,30	9064,21
743,48	9077,91
743,67	8992,22
743,85	8988,99
744,03	8983,41
744,21	8887,26
744,40	8898,42
744,58	8933,59
744,76	8872,54
744,94	8861,44
745,13	8899,90
745,31	8899,49
745,49	8763,65
745,67	8776,47
745,86	8777,12
746,04	8811,24
746,22	8761,09
746,40	8687,22
746,59	8702,60
746,77	8743,23
746,95	8661,00
747,13	8672,16
747,32	8564,56
747,50	8620,45
747,68	8577,20
747,86	8510,68
748,05	8500,30
748,23	8488,63
748,41	8389,69
748,59	8372,46
748,77	8283,36
748,96	8229,64
749,14	8248,24
749,32	8233,86
749,50	8221,88
749,69	8236,17
749,87	8120,36
750,05	8140,63
750,23	8084,01
750,41	8044,36
750,60	8067,54
750,78	8040,55
750,96	8045,45
751,14	7961,54
751,32	7983,97
751,51	8014,46
751,69	7988,31
751,87	7858,26
752,05	7946,43
752,23	7926,13
752,42	7877,37
752,60	7939,67
752,78	7866,70
752,96	7951,85
753,14	7896,76
753,33	7917,39
753,51	7913,84
753,69	7951,57
753,87	7859,86
754,05	7962,05
754,23	7842,61
754,42	7924,49
754,60	7845,01
754,78	7874,81
754,96	7818,98
755,14	7852,10
755,32	7768,64
755,51	7907,35
755,69	7786,93
755,87	7872,76
756,05	7827,07
756,23	7879,70
756,41	7789,12
756,60	7875,83
756,78	7853,67
756,96	7873,64
757,14	7848,45
757,32	7879,38
757,50	7867,01
757,68	7808,09
757,87	7778,78
758,05	7674,93
758,23	7436,09
758,41	7058,26
758,59	6489,36
758,77	5817,79
758,95	5009,70
759,14	4163,70
759,32	3437,21
759,50	2799,61
759,68	2298,72
759,86	1915,79
760,04	1646,14
760,22	1444,25
760,40	1381,01
760,59	1451,74
760,77	1636,47
760,95	1869,82
761,13	2090,57
761,31	2217,70
761,49	2288,13
761,67	2232,57
761,85	2040,41
762,03	1879,61
762,22	1752,26
762,40	1674,19
762,58	1632,60
762,76	1657,56
762,94	1704,48
763,12	1781,57
763,30	1909,42
763,48	2050,20
763,66	2186,72
763,84	2393,34
764,02	2563,87
764,21	2776,90
764,39	2979,28
764,57	3211,81
764,75	3446,73
764,93	3660,62
765,11	3905,39
765,29	4187,54
765,47	4409,65
765,65	4668,26
765,83	4902,94
766,01	5186,11
766,19	5449,13
766,37	5676,66
766,56	5892,64
766,74	6153,29
766,92	6299,86
767,10	6475,78
767,28	6598,29
767,46	6751,42
767,64	6875,77
767,82	6974,36
768,00	6987,65
768,18	7147,80
768,36	7177,86
768,54	7188,58
768,72	7241,35
768,90	7290,52
769,08	7292,73
769,26	7308,79
769,44	7388,99
769,62	7418,93
769,80	7404,62
769,98	7484,63
770,16	7424,75
770,34	7396,20
770,52	7356,51
770,71	7357,76
770,89	7354,91
771,07	7320,87
771,25	7242,07
771,43	7300,05
771,61	7287,12
771,79	7229,51
771,97	7270,04
772,15	7218,68
772,33	7147,19
772,51	7152,61
772,69	7169,55
772,87	7120,38
773,05	7100,66
773,23	7117,33
773,41	7035,37
773,59	6999,61
773,77	6932,95
773,95	6934,20
774,13	6824,51
774,31	6854,08
774,49	6778,22
774,67	6768,68
774,85	6757,46
775,03	6713,73
775,21	6712,36
775,39	6791,56
775,57	6661,69
775,75	6671,57
775,93	6649,32
776,10	6588,83
776,28	6527,59
776,46	6515,71
776,64	6453,99
776,82	6445,88
777,00	6416,90
777,18	6333,83
777,36	6250,34
777,54	6383,19
777,72	6232,81
777,90	6238,03
778,08	6225,39
778,26	6184,17
778,44	6213,19
778,62	6153,31
778,80	6095,08
778,98	6097,58
779,16	6048,78
779,34	6010,15
779,52	5955,96
779,70	5983,96
779,88	5902,59
780,05	5877,32
780,23	5835,48
780,41	5881,36
780,59	5837,08
780,77	5815,29
780,95	5786,13
781,13	5791,14
781,31	5772,79
781,49	5690,38
781,67	5714,86
781,85	5721,90
782,03	5636,50
782,21	5620,88
782,39	5586,72
782,56	5529,17
782,74	5459,15
782,92	5484,21
783,10	5458,21
783,28	5428,49
783,46	5460,48
783,64	5431,09
783,82	5424,76
784,00	5388,12
784,18	5373,52
784,35	5353,78
784,53	5293,38
784,71	5294,80
784,89	5269,55
785,07	5242,19
785,25	5254,82
785,43	5244,75
785,61	5128,44
785,79	5185,99
785,96	5088,61
786,14	5109,76
786,32	5057,81
786,50	5080,01
786,68	5002,00
786,86	4994,44
787,04	4970,03
787,22	4952,05
787,39	4900,71
787,57	4932,92
787,75	4864,56
787,93	4856,72
788,11	4838,55
788,29	4818,05
788,47	4764,52
788,65	4745,78
788,82	4663,84
789,00	4707,81
789,18	4650,34
789,36	4659,54
789,54	4608,75
789,72	4611,39
789,89	4584,05
790,07	4568,83
790,25	4545,63
790,43	4513,64
790,61	4480,40
790,79	4460,27
790,96	4432,60
791,14	4393,47
791,32	4364,28
791,50	4414,03
791,68	4340,46
791,86	4328,93
792,03	4265,76
792,21	4315,13
792,39	4266,25
792,57	4277,02
792,75	4205,91
792,93	4232,07
793,10	4181,09
793,28	4204,38
793,46	4161,60
793,64	4165,92
793,82	4127,58
793,99	4162,00
794,17	4104,33
794,35	4128,56
794,53	4092,25
794,71	4090,14
794,88	4053,20
795,06	4070,77
795,24	4011,01
795,42	4012,75
795,60	3999,99
795,77	3978,12
795,95	3959,69
796,13	3981,78
796,31	3963,21
796,49	4007,67
796,66	3933,76
796,84	3970,42
797,02	3944,10
797,20	3950,65
797,37	3934,84
797,55	3947,03
797,73	3909,08
797,91	3925,24
798,08	3878,12
798,26	3902,32
798,44	3806,56
798,62	3810,00
798,80	3792,22
798,97	3761,44
799,15	3702,54
799,33	3722,04
799,51	3713,05
799,68	3685,18
799,86	3712,68
800,04	3660,54
800,22	3628,16
800,39	3649,73
800,57	3615,59
800,75	3650,42
800,93	3607,95
801,10	3607,31
801,28	3576,63
801,46	3551,08
801,63	3552,84
801,81	3557,69
801,99	3503,99
802,17	3515,85
802,34	3466,31
802,52	3473,31
802,70	3461,97
802,88	3484,70
803,05	3447,61
803,23	3448,98
803,41	3409,21
803,58	3391,97
803,76	3393,28
803,94	3385,07
804,12	3381,32
804,29	3362,62
804,47	3355,17
804,65	3370,10
804,82	3312,34
805,00	3318,04
805,18	3349,51
805,35	3342,61
805,53	3286,74
805,71	3306,79
805,89	3307,90
806,06	3276,61
806,24	3268,62
806,42	3284,47
806,59	3235,28
806,77	3258,95
806,95	3214,25
807,12	3221,25
807,30	3206,03
807,48	3185,19
807,65	3145,05
807,83	3157,17
808,01	3115,70
808,18	3127,23
808,36	3098,15
808,54	3102,53
808,71	3053,40
808,89	3047,28
809,07	3012,87
809,24	3014,18
809,42	3029,66
809,60	2998,35
809,77	2994,07
809,95	2972,22
810,13	2965,27
810,30	2969,35
810,48	2940,23
810,66	2934,12
810,83	2932,28
811,01	2915,61
811,18	2866,28
811,36	2890,28
811,54	2855,46
811,71	2845,39
811,89	2840,59
812,07	2798,73
812,24	2758,51
812,42	2739,73
812,59	2700,02
812,77	2656,48
812,95	2630,74
813,12	2640,98
813,30	2599,77
813,48	2598,65
813,65	2557,59
813,83	2527,97
814,00	2481,18
814,18	2451,77
814,36	2442,61
814,53	2414,43
814,71	2383,16
814,88	2375,17
815,06	2337,65
815,24	2317,56
815,41	2279,27
815,59	2263,87
815,76	2205,01
815,94	2199,50
816,12	2183,83
816,29	2204,66
816,47	2196,59
816,64	2188,36
816,82	2175,29
817,00	2161,69
817,17	2141,91
817,35	2163,11
817,52	2127,47
817,70	2135,89
817,87	2133,04
818,05	2138,28
818,23	2108,06
818,40	2124,09
818,58	2091,39
818,75	2114,06
818,93	2081,86
819,10	2128,58
819,28	2094,97
819,46	2144,59
819,63	2147,07
819,81	2185,37
819,98	2204,95
820,16	2191,72
820,33	2228,09
820,51	2220,49
820,68	2211,54
820,86	2217,32
821,03	2185,31
821,21	2152,33
821,39	2135,48
821,56	2124,28
821,74	2037,05
821,91	2010,16
822,09	1939,84
822,26	1898,61
822,44	1857,59
822,61	1870,66
822,79	1882,02
822,96	1926,14
823,14	1930,44
823,31	1957,43
823,49	1987,62
823,66	2016,55
823,84	2003,88
824,01	2019,42
824,19	2022,64
824,36	2051,06
824,54	2053,56
824,71	2031,26
824,89	2026,71
825,06	2018,36
825,24	2024,64
825,41	2024,07
825,59	2006,50
825,76	2032,90
825,94	2026,10
826,11	2044,59
826,29	2037,54
826,46	2005,70
826,64	1997,47
826,81	1963,18
826,99	1936,17
827,16	1926,18
827,34	1896,38
827,51	1892,22
827,69	1886,40
827,86	1884,32
828,04	1873,95
828,21	1880,94
828,39	1859,13
828,56	1850,81
828,74	1833,83
828,91	1845,59
829,09	1835,00
829,26	1854,46
829,43	1829,06
829,61	1822,06
829,78	1821,81
829,96	1828,12
830,13	1823,55
830,31	1832,87
830,48	1819,58
830,66	1819,44
830,83	1808,79
831,01	1808,64
831,18	1799,30
831,35	1796,31
831,53	1776,12
831,70	1787,67
831,88	1765,16
832,05	1787,63
832,23	1775,26
832,40	1772,52
832,57	1757,51
832,75	1760,04
832,92	1729,92
833,10	1782,37
833,27	1746,71
833,45	1753,00
833,62	1742,56
833,79	1752,73
833,97	1771,49
834,14	1738,73
834,32	1730,72
834,49	1767,50
834,66	1750,69
834,84	1765,14
835,01	1744,64
835,19	1743,09
835,36	1744,69
835,53	1738,87
835,71	1740,16
835,88	1736,00
836,06	1740,36
836,23	1720,52
836,40	1716,75
836,58	1734,10
836,75	1713,88
836,93	1718,53
837,10	1702,17
837,27	1704,91
837,45	1700,96
837,62	1679,21
837,79	1689,80
837,97	1708,48
838,14	1668,17
838,32	1696,72
838,49	1663,38
838,66	1679,85
838,84	1651,85
839,01	1665,55
839,18	1658,79
839,36	1664,04
839,53	1642,82
839,70	1657,61
839,88	1645,65
840,05	1658,88
840,23	1627,05
840,40	1639,46
840,57	1634,30
840,75	1624,88
840,92	1606,26
841,09	1606,63
841,27	1605,91
841,44	1608,84
841,61	1603,35
841,79	1597,33
841,96	1587,36
842,13	1574,91
842,31	1565,59
842,48	1559,38
842,65	1547,92
842,83	1562,64
843,00	1542,53
843,17	1551,42
843,35	1524,24
843,52	1524,26
843,69	1508,74
843,86	1536,02
844,04	1496,02
844,21	1505,67
844,38	1513,45
844,56	1494,79
844,73	1495,04
844,90	1503,95
845,08	1490,90
845,25	1495,63
845,42	1477,55
845,60	1474,03
845,77	1448,75
845,94	1471,67
846,11	1465,18
846,29	1452,11
846,46	1446,01
846,63	1436,63
846,81	1456,29
846,98	1411,56
847,15	1441,05
847,32	1427,02
847,50	1415,99
847,67	1425,88
847,84	1387,23
848,01	1403,21
848,19	1389,49
848,36	1372,20
848,53	1386,64
848,71	1367,12
848,88	1334,48
849,05	1317,62
849,22	1307,28
849,40	1318,81
849,57	1280,41
849,74	1280,76
849,91	1272,03
850,09	1274,45
850,26	1274,47
850,43	1304,52
850,60	1260,91
850,78	1273,12
850,95	1261,38
851,12	1256,78
851,29	1264,07
851,47	1260,09
851,64	1247,46
851,81	1244,33
851,98	1247,01
852,15	1258,13
852,33	1231,55
852,50	1221,82
852,67	1219,67
852,84	1213,38
853,02	1188,87
853,19	1178,52
853,36	1147,78
853,53	1132,85
853,70	1117,04
853,88	1097,08
854,05	1083,93
854,22	1089,95
854,39	1079,12
854,56	1088,76
854,74	1083,64
854,91	1103,10
855,08	1084,15
855,25	1087,68
855,42	1103,10
855,60	1108,61
855,77	1105,96
855,94	1110,06
856,11	1116,63
856,28	1103,40
856,46	1100,09
856,63	1110,08
856,80	1098,47
856,97	1109,88
857,14	1106,15
857,31	1102,97
857,49	1110,90
857,66	1118,25
857,83	1082,95
858,00	1104,04
858,17	1108,63
858,34	1097,10
858,52	1105,27
858,69	1094,05
858,86	1079,61
859,03	1084,60
859,20	1072,56
859,37	1085,03
859,55	1053,39
859,72	1072,40
859,89	1061,40
860,06	1065,09
860,23	1055,05
860,40	1051,02
860,57	1042,25
860,75	1039,45
860,92	1038,22
861,09	1023,19
861,26	1024,07
861,43	1028,51
861,60	1010,45
861,77	1027,57
861,95	1005,18
862,12	1020,36
862,29	999,74
862,46	1021,24
862,63	1003,22
862,80	1005,47
862,97	1004,43
863,14	997,05
863,31	998,24
863,49	980,96
863,66	983,56
863,83	970,88
864,00	981,71
864,17	974,36
864,34	965,29
864,51	968,89
864,68	935,37
864,85	945,85
865,02	924,78
865,20	932,19
865,37	913,54
865,54	903,58
865,71	889,45
865,88	869,10
866,05	851,87
866,22	855,44
866,39	842,70
866,56	844,36
866,73	843,13
866,90	844,48
867,07	838,52
867,25	831,54
867,42	824,98
867,59	831,29
867,76	826,95
867,93	850,50
868,10	828,98
868,27	833,32
868,44	817,43
868,61	827,60
868,78	819,66
868,95	824,41
869,12	828,16
869,29	823,02
869,46	821,50
869,63	823,51
869,80	819,47
869,97	838,79
870,14	808,25
870,32	820,68
870,49	821,05
870,66	815,34
870,83	803,30
871,00	804,48
871,17	797,34
871,34	802,15
871,51	781,44
871,68	804,24
871,85	786,17
872,02	780,34
872,19	773,33
872,36	797,79
872,53	773,50
872,70	788,37
872,87	773,72
873,04	761,13
873,21	758,73
873,38	760,55
873,55	752,63
873,72	756,87
873,89	744,19
874,06	745,11
874,23	737,31
874,40	724,06
874,57	733,93
874,74	718,37
874,91	720,35
875,08	721,05
875,25	718,39
875,42	711,01
875,59	705,14
875,76	698,38
875,93	700,38
876,10	702,17
876,27	689,10
876,44	690,78
876,61	672,98
876,78	692,89
876,95	675,24
877,12	679,25
877,29	664,91
877,46	673,56
877,62	668,97
877,79	657,83
877,96	671,53
878,13	672,68
878,30	645,38
878,47	666,86
878,64	658,63
878,81	654,14
878,98	650,97
879,15	633,09
879,32	649,70
879,49	633,72
879,66	639,33
879,83	627,93
880,00	618,47
880,17	630,14
880,34	616,27
880,51	620,27
880,67	613,49
880,84	596,84
881,01	603,84
881,18	607,92
881,35	601,55
881,52	605,52
881,69	590,41
881,86	583,04
882,03	600,87
882,20	593,30
882,37	588,89
882,54	586,42
882,70	569,77
882,87	569,38
883,04	592,09
883,21	572,14
883,38	574,35
883,55	578,10
883,72	565,96
883,89	576,24
884,06	558,58
884,23	579,74
884,39	556,43
884,56	567,47
884,73	563,23
884,90	561,63
885,07	553,03
885,24	555,39
885,41	543,78
885,58	545,42
885,74	543,00
885,91	542,75
886,08	529,09
886,25	536,83
886,42	528,48
886,59	532,14
886,76	524,44
886,93	524,26
887,09	516,68
887,26	520,20
887,43	492,70
887,60	507,98
887,77	513,45
887,94	513,30
888,10	517,11
888,27	515,82
888,44	493,36
888,61	495,06
888,78	488,75
888,95	493,56
889,12	494,15
889,28	489,42
889,45	487,76
889,62	488,85
889,79	490,90
889,96	483,24
890,13	481,15
890,29	475,11
890,46	472,45
890,63	470,56
890,80	479,06
890,97	477,65
891,13	466,14
891,30	464,46
891,47	463,37
891,64	459,48
891,81	447,97
891,98	459,52
892,14	454,49
892,31	451,93
892,48	447,07
892,65	448,77
892,82	437,10
892,98	429,54
893,15	439,68
893,32	439,37
>>>>>End Processed Spectral Data<<<<<
